PC_Timestamp,ECG
2026-06-18 12:43:01.336375,34.08
2026-06-18 12:43:01.350817,31.92
2026-06-18 12:43:01.353790,29.77
2026-06-18 12:43:01.366104,29.62
2026-06-18 12:43:01.369470,27.48
2026-06-18 12:43:01.382138,22.37
2026-06-18 12:43:01.389381,12.31
2026-06-18 12:43:01.397379,5.28
2026-06-18 12:43:01.404378,0.28
2026-06-18 12:43:01.411903,-2.7
2026-06-18 12:43:01.417324,-8.66
2026-06-18 12:43:01.427667,-7.62
2026-06-18 12:43:01.434197,-4.6
2026-06-18 12:43:01.443837,0.4
2026-06-18 12:43:01.452758,1.39
2026-06-18 12:43:01.456885,1.39
2026-06-18 12:43:01.467369,4.36
2026-06-18 12:43:01.469410,10.31
2026-06-18 12:43:01.483299,11.25
2026-06-18 12:43:01.491439,7.22
2026-06-18 12:43:01.499480,6.19
2026-06-18 12:43:01.507476,10.14
2026-06-18 12:43:01.515483,17.05
2026-06-18 12:43:01.517291,25.92
2026-06-18 12:43:01.529304,32.76
2026-06-18 12:43:01.534268,35.58
2026-06-18 12:43:01.545333,39.38
2026-06-18 12:43:01.553960,37.19
2026-06-18 12:43:01.561981,37.01
2026-06-18 12:43:01.570408,32.84
2026-06-18 12:43:01.577733,29.69
2026-06-18 12:43:01.584934,24.57
2026-06-18 12:43:01.591364,18.48
2026-06-18 12:43:01.601139,18.38
2026-06-18 12:43:01.601139,14.31
2026-06-18 12:43:01.616523,9.26
2026-06-18 12:43:01.618050,3.25
2026-06-18 12:43:01.632131,-0.75
2026-06-18 12:43:01.634638,-5.72
2026-06-18 12:43:01.646848,-12.66
2026-06-18 12:43:01.651099,-16.57
2026-06-18 12:43:01.662614,-20.47
2026-06-18 12:43:01.670073,-20.37
2026-06-18 12:43:01.677740,-16.28
2026-06-18 12:43:01.687198,-10.23
2026-06-18 12:43:01.694656,-4.21
2026-06-18 12:43:01.702661,0.78
2026-06-18 12:43:01.710659,2.77
2026-06-18 12:43:01.718199,3.75
2026-06-18 12:43:01.725191,1.74
2026-06-18 12:43:01.733381,-1.25
2026-06-18 12:43:01.741211,-10.2
2026-06-18 12:43:01.749744,-11.14
2026-06-18 12:43:01.755998,-11.09
2026-06-18 12:43:01.763761,-13.02
2026-06-18 12:43:01.769886,-21.91
2026-06-18 12:43:01.779038,-23.79
2026-06-18 12:43:01.785038,-29.64
2026-06-18 12:43:01.795269,-29.5
2026-06-18 12:43:01.804002,-31.34
2026-06-18 12:43:01.811979,-31.18
2026-06-18 12:43:01.819008,-31.03
2026-06-18 12:43:01.825978,-32.86
2026-06-18 12:43:01.834812,-32.7
2026-06-18 12:43:01.834812,-30.54
2026-06-18 12:43:01.851062,-26.41
2026-06-18 12:43:01.853077,-24.29
2026-06-18 12:43:01.866580,-24.17
2026-06-18 12:43:01.874539,-22.06
2026-06-18 12:43:01.882112,-22.94
2026-06-18 12:43:01.884603,-22.83
2026-06-18 12:43:01.896427,-20.72
2026-06-18 12:43:01.904751,-15.64
2026-06-18 12:43:01.912545,-11.59
2026-06-18 12:43:01.917657,-14.51
2026-06-18 12:43:01.927443,-15.43
2026-06-18 12:43:01.936754,-14.36
2026-06-18 12:43:01.944815,-16.28
2026-06-18 12:43:01.952268,-13.21
2026-06-18 12:43:01.952268,-15.14
2026-06-18 12:43:01.967405,-15.06
2026-06-18 12:43:01.970236,-11.01
2026-06-18 12:43:01.984104,-0.01
2026-06-18 12:43:01.991671,16.91
2026-06-18 12:43:01.999668,37.72
2026-06-18 12:43:02.006886,43.5
2026-06-18 12:43:02.014903,23.38
2026-06-18 12:43:02.022460,-10.56
2026-06-18 12:43:02.029856,-25.44
2026-06-18 12:43:02.038063,-10.38
2026-06-18 12:43:02.045067,21.51
2026-06-18 12:43:02.053998,40.3
2026-06-18 12:43:02.060868,44.08
2026-06-18 12:43:02.069181,38.89
2026-06-18 12:43:02.076025,39.69
2026-06-18 12:43:02.084906,40.48
2026-06-18 12:43:02.084906,42.27
2026-06-18 12:43:02.100896,42.06
2026-06-18 12:43:02.101603,43.84
2026-06-18 12:43:02.116380,39.64
2026-06-18 12:43:02.123693,33.47
2026-06-18 12:43:02.131983,26.34
2026-06-18 12:43:02.138685,19.24
2026-06-18 12:43:02.146295,17.16
2026-06-18 12:43:02.150582,23.04
2026-06-18 12:43:02.162038,24.92
2026-06-18 12:43:02.170481,23.8
2026-06-18 12:43:02.177925,20.69
2026-06-18 12:43:02.186404,23.57
2026-06-18 12:43:02.190391,24.45
2026-06-18 12:43:02.202589,25.32
2026-06-18 12:43:02.210230,26.19
2026-06-18 12:43:02.218240,29.05
2026-06-18 12:43:02.225970,36.86
2026-06-18 12:43:02.234049,45.63
2026-06-18 12:43:02.241582,50.38
2026-06-18 12:43:02.249644,52.12
2026-06-18 12:43:02.256542,52.85
2026-06-18 12:43:02.265304,52.59
2026-06-18 12:43:02.272591,46.35
2026-06-18 12:43:02.280429,35.18
2026-06-18 12:43:02.288427,18.09
2026-06-18 12:43:02.296428,9.04
2026-06-18 12:43:02.300925,0.04
2026-06-18 12:43:02.311111,-6.92
2026-06-18 12:43:02.319712,-10.87
2026-06-18 12:43:02.323712,-12.8
2026-06-18 12:43:02.334752,-14.73
2026-06-18 12:43:02.341675,-13.66
2026-06-18 12:43:02.351233,-10.61
2026-06-18 12:43:02.351233,-7.57
2026-06-18 12:43:02.366376,-8.53
2026-06-18 12:43:02.372827,-15.45
2026-06-18 12:43:02.381873,-19.35
2026-06-18 12:43:02.384886,-16.27
2026-06-18 12:43:02.396361,-9.22
2026-06-18 12:43:02.401566,-7.19
2026-06-18 12:43:02.411953,-10.14
2026-06-18 12:43:02.417721,-12.08
2026-06-18 12:43:02.428112,-10.03
2026-06-18 12:43:02.437028,-6.99
2026-06-18 12:43:02.441045,-5.96
2026-06-18 12:43:02.452517,-4.94
2026-06-18 12:43:02.460515,-6.9
2026-06-18 12:43:02.467904,-5.87
2026-06-18 12:43:02.475421,-2.86
2026-06-18 12:43:02.483426,3.13
2026-06-18 12:43:02.484433,9.08
2026-06-18 12:43:02.499540,14.01
2026-06-18 12:43:02.500880,15.93
2026-06-18 12:43:02.515173,19.83
2026-06-18 12:43:02.517776,21.72
2026-06-18 12:43:02.529293,25.59
2026-06-18 12:43:02.534231,25.46
2026-06-18 12:43:02.544702,32.3
2026-06-18 12:43:02.550974,40.1
2026-06-18 12:43:02.560513,45.87
2026-06-18 12:43:02.568769,51.61
2026-06-18 12:43:02.574313,57.32
2026-06-18 12:43:02.584658,57.04
2026-06-18 12:43:02.584658,57.75
2026-06-18 12:43:02.600778,53.48
2026-06-18 12:43:02.607986,49.23
2026-06-18 12:43:02.616544,44.01
2026-06-18 12:43:02.618504,44.78
2026-06-18 12:43:02.631849,44.56
2026-06-18 12:43:02.634553,41.35
2026-06-18 12:43:02.646384,34.18
2026-06-18 12:43:02.651004,28.04
2026-06-18 12:43:02.661868,24.91
2026-06-18 12:43:02.671527,21.8
2026-06-18 12:43:02.677600,16.72
2026-06-18 12:43:02.687137,11.66
2026-06-18 12:43:02.694181,4.64
2026-06-18 12:43:02.702416,0.64
2026-06-18 12:43:02.710403,-2.35
2026-06-18 12:43:02.718393,-1.35
2026-06-18 12:43:02.725443,-3.33
2026-06-18 12:43:02.733406,-3.31
2026-06-18 12:43:02.740544,-7.28
2026-06-18 12:43:02.749513,-10.22
2026-06-18 12:43:02.756865,-18.13
2026-06-18 12:43:02.765196,-21.03
2026-06-18 12:43:02.770820,-25.9
2026-06-18 12:43:02.779090,-25.77
2026-06-18 12:43:02.788135,-27.63
2026-06-18 12:43:02.795143,-22.52
2026-06-18 12:43:02.801041,-20.41
2026-06-18 12:43:02.810654,-17.33
2026-06-18 12:43:02.819921,-24.2
2026-06-18 12:43:02.824138,-25.08
2026-06-18 12:43:02.834173,-25.95
2026-06-18 12:43:02.842861,-17.86
2026-06-18 12:43:02.851008,-14.78
2026-06-18 12:43:02.857119,-12.72
2026-06-18 12:43:02.866626,-13.65
2026-06-18 12:43:02.870858,-13.58
2026-06-18 12:43:02.881768,-14.51
2026-06-18 12:43:02.890116,-16.43
2026-06-18 12:43:02.898125,-20.33
2026-06-18 12:43:02.904136,-18.23
2026-06-18 12:43:02.912231,-16.15
2026-06-18 12:43:02.917533,-15.08
2026-06-18 12:43:02.928325,-12.02
2026-06-18 12:43:02.934370,-12.95
2026-06-18 12:43:02.943492,-13.88
2026-06-18 12:43:02.950555,-14.81
2026-06-18 12:43:02.958894,-19.71
2026-06-18 12:43:02.968375,-19.61
2026-06-18 12:43:02.973961,-18.52
2026-06-18 12:43:02.983961,-19.42
2026-06-18 12:43:02.983961,-22.31
2026-06-18 12:43:02.999430,-25.18
2026-06-18 12:43:03.007267,-22.07
2026-06-18 12:43:03.015053,-14.0
2026-06-18 12:43:03.017069,-10.94
2026-06-18 12:43:03.029737,-11.88
2026-06-18 12:43:03.038493,-17.8
2026-06-18 12:43:03.045576,-18.7
2026-06-18 12:43:03.050749,-18.61
2026-06-18 12:43:03.060474,-15.53
2026-06-18 12:43:03.067078,-15.45
2026-06-18 12:43:03.076001,-9.41
2026-06-18 12:43:03.085110,-10.35
2026-06-18 12:43:03.090163,-6.32
2026-06-18 12:43:03.100415,-6.29
2026-06-18 12:43:03.100415,-10.24
2026-06-18 12:43:03.116074,-17.15
2026-06-18 12:43:03.124105,-12.09
2026-06-18 12:43:03.131735,1.9
2026-06-18 12:43:03.133747,17.81
2026-06-18 12:43:03.146439,14.74
2026-06-18 12:43:03.150400,-12.2
2026-06-18 12:43:03.162135,-43.98
2026-06-18 12:43:03.171024,-52.72
2026-06-18 12:43:03.177672,-38.52
2026-06-18 12:43:03.183721,-14.45
2026-06-18 12:43:03.193218,-2.44
2026-06-18 12:43:03.201803,-3.42
2026-06-18 12:43:03.207111,-6.39
2026-06-18 12:43:03.217555,2.6
2026-06-18 12:43:03.225575,10.54
2026-06-18 12:43:03.233225,19.45
2026-06-18 12:43:03.234660,17.36
2026-06-18 12:43:03.249377,13.29
2026-06-18 12:43:03.257400,12.23
2026-06-18 12:43:03.264817,18.14
2026-06-18 12:43:03.271258,21.03
2026-06-18 12:43:03.279415,21.92
2026-06-18 12:43:03.285348,14.85
2026-06-18 12:43:03.294752,14.78
2026-06-18 12:43:03.300338,12.71
2026-06-18 12:43:03.310790,13.64
2026-06-18 12:43:03.319019,15.56
2026-06-18 12:43:03.327351,13.5
2026-06-18 12:43:03.335348,17.41
2026-06-18 12:43:03.342345,19.31
2026-06-18 12:43:03.350651,19.22
2026-06-18 12:43:03.358918,23.1
2026-06-18 12:43:03.366115,30.94
2026-06-18 12:43:03.371532,43.72
2026-06-18 12:43:03.381436,57.44
2026-06-18 12:43:03.384209,68.09
2026-06-18 12:43:03.396757,75.71
2026-06-18 12:43:03.400364,78.32
2026-06-18 12:43:03.412473,72.95
2026-06-18 12:43:03.416990,63.63
2026-06-18 12:43:03.427532,56.35
2026-06-18 12:43:03.436898,47.11
2026-06-18 12:43:03.443435,36.93
2026-06-18 12:43:03.451039,29.78
2026-06-18 12:43:03.451039,22.66
2026-06-18 12:43:03.466888,11.61
2026-06-18 12:43:03.471829,3.59
2026-06-18 12:43:03.483791,-0.41
2026-06-18 12:43:03.490247,1.58
2026-06-18 12:43:03.499314,-4.4
2026-06-18 12:43:03.507026,-11.34
2026-06-18 12:43:03.515106,-16.26
2026-06-18 12:43:03.517116,-16.18
2026-06-18 12:43:03.529318,-12.11
2026-06-18 12:43:03.538628,-17.03
2026-06-18 12:43:03.545658,-17.94
2026-06-18 12:43:03.553689,-15.86
2026-06-18 12:43:03.561698,-10.81
2026-06-18 12:43:03.569748,-5.78
2026-06-18 12:43:03.573811,-5.75
2026-06-18 12:43:03.584336,-7.71
2026-06-18 12:43:03.590746,-10.66
2026-06-18 12:43:03.600769,-13.59
2026-06-18 12:43:03.600769,-16.5
2026-06-18 12:43:03.616569,-15.43
2026-06-18 12:43:03.617322,-19.33
2026-06-18 12:43:03.632550,-22.22
2026-06-18 12:43:03.633859,-26.09
2026-06-18 12:43:03.646540,-26.95
2026-06-18 12:43:03.650320,-30.8
2026-06-18 12:43:03.661930,-32.63
2026-06-18 12:43:03.666945,-34.46
2026-06-18 12:43:03.677581,-37.27
2026-06-18 12:43:03.686465,-37.09
2026-06-18 12:43:03.694838,-36.9
2026-06-18 12:43:03.702057,-38.71
2026-06-18 12:43:03.709000,-36.52
2026-06-18 12:43:03.716971,-34.35
2026-06-18 12:43:03.724925,-31.19
2026-06-18 12:43:03.733702,-27.06
2026-06-18 12:43:03.741701,-26.92
2026-06-18 12:43:03.749709,-26.79
2026-06-18 12:43:03.756714,-24.66
2026-06-18 12:43:03.765159,-20.56
2026-06-18 12:43:03.772463,-21.45
2026-06-18 12:43:03.779641,-21.34
2026-06-18 12:43:03.788281,-24.22
2026-06-18 12:43:03.794722,-26.09
2026-06-18 12:43:03.800952,-28.95
2026-06-18 12:43:03.810624,-24.82
2026-06-18 12:43:03.819061,-19.72
2026-06-18 12:43:03.823057,-14.65
2026-06-18 12:43:03.834214,-15.57
2026-06-18 12:43:03.842038,-19.47
2026-06-18 12:43:03.850238,-22.36
2026-06-18 12:43:03.858560,-22.25
2026-06-18 12:43:03.866026,-22.14
2026-06-18 12:43:03.873784,-20.04
2026-06-18 12:43:03.882181,-19.94
2026-06-18 12:43:03.889182,-20.83
2026-06-18 12:43:03.896295,-22.72
2026-06-18 12:43:03.900612,-23.6
2026-06-18 12:43:03.912561,-27.46
2026-06-18 12:43:03.917851,-28.32
2026-06-18 12:43:03.927627,-30.17
2026-06-18 12:43:03.936559,-28.03
2026-06-18 12:43:03.943334,-29.88
2026-06-18 12:43:03.950451,-30.72
2026-06-18 12:43:03.950451,-27.58
2026-06-18 12:43:03.966934,-23.47
2026-06-18 12:43:03.972123,-21.36
2026-06-18 12:43:03.983281,-24.24
2026-06-18 12:43:03.991817,-27.1
2026-06-18 12:43:03.999197,-21.99
2026-06-18 12:43:04.000503,-14.91
2026-06-18 12:43:04.014801,-7.87
2026-06-18 12:43:04.016824,-3.86
2026-06-18 12:43:04.029073,-1.85
2026-06-18 12:43:04.036339,-4.82
2026-06-18 12:43:04.044787,-3.8
2026-06-18 12:43:04.050108,-0.8
2026-06-18 12:43:04.060270,5.18
2026-06-18 12:43:04.066821,7.14
2026-06-18 12:43:04.076023,11.08
2026-06-18 12:43:04.085040,13.02
2026-06-18 12:43:04.092796,11.96
2026-06-18 12:43:04.100723,8.91
2026-06-18 12:43:04.106240,-0.09
2026-06-18 12:43:04.115962,-3.07
2026-06-18 12:43:04.117366,-5.05
2026-06-18 12:43:04.132420,-5.02
2026-06-18 12:43:04.133419,-6.99
2026-06-18 12:43:04.146231,-4.96
2026-06-18 12:43:04.150024,-5.93
2026-06-18 12:43:04.161851,-2.92
2026-06-18 12:43:04.166575,-3.9
2026-06-18 12:43:04.177682,-4.87
2026-06-18 12:43:04.186899,-4.85
2026-06-18 12:43:04.189899,-1.84
2026-06-18 12:43:04.202335,4.14
2026-06-18 12:43:04.210320,24.02
2026-06-18 12:43:04.218315,34.85
2026-06-18 12:43:04.225369,19.75
2026-06-18 12:43:04.233358,-18.16
2026-06-18 12:43:04.241357,-46.93
2026-06-18 12:43:04.249355,-42.71
2026-06-18 12:43:04.250248,-20.61
2026-06-18 12:43:04.264707,3.37
2026-06-18 12:43:04.273080,2.36
2026-06-18 12:43:04.279908,-5.61
2026-06-18 12:43:04.288426,-5.58
2026-06-18 12:43:04.295979,-0.58
2026-06-18 12:43:04.303989,1.41
2026-06-18 12:43:04.310994,1.41
2026-06-18 12:43:04.319100,-4.57
2026-06-18 12:43:04.323768,-8.53
2026-06-18 12:43:04.334043,-12.46
2026-06-18 12:43:04.334043,-12.4
2026-06-18 12:43:04.350521,-14.33
2026-06-18 12:43:04.350521,-7.29
2026-06-18 12:43:04.366233,-2.28
2026-06-18 12:43:04.372371,0.71
2026-06-18 12:43:04.382359,-0.28
2026-06-18 12:43:04.383723,-8.24
2026-06-18 12:43:04.397993,-14.17
2026-06-18 12:43:04.404023,-10.12
2026-06-18 12:43:04.412782,-2.11
2026-06-18 12:43:04.419844,-3.09
2026-06-18 12:43:04.427531,-3.08
2026-06-18 12:43:04.433347,-0.08
2026-06-18 12:43:04.443411,12.86
2026-06-18 12:43:04.452231,25.73
2026-06-18 12:43:04.457462,34.55
2026-06-18 12:43:04.466687,37.37
2026-06-18 12:43:04.474564,37.18
2026-06-18 12:43:04.483653,31.02
2026-06-18 12:43:04.483653,25.89
2026-06-18 12:43:04.499036,18.8
2026-06-18 12:43:04.507039,9.75
2026-06-18 12:43:04.514573,-2.24
2026-06-18 12:43:04.516893,-10.19
2026-06-18 12:43:04.530219,-16.11
2026-06-18 12:43:04.537799,-14.04
2026-06-18 12:43:04.546341,-19.94
2026-06-18 12:43:04.550110,-28.79
2026-06-18 12:43:04.560480,-35.61
2026-06-18 12:43:04.569722,-37.42
2026-06-18 12:43:04.572743,-39.23
2026-06-18 12:43:04.583848,-40.03
2026-06-18 12:43:04.591868,-42.81
2026-06-18 12:43:04.600455,-40.61
2026-06-18 12:43:04.608600,-37.42
2026-06-18 12:43:04.616595,-36.24
2026-06-18 12:43:04.622643,-37.05
2026-06-18 12:43:04.632314,-33.88
2026-06-18 12:43:04.633783,-28.74
2026-06-18 12:43:04.647915,-20.63
2026-06-18 12:43:04.649927,-13.56
2026-06-18 12:43:04.662022,-13.5
2026-06-18 12:43:04.666712,-18.4
2026-06-18 12:43:04.678017,-23.29
2026-06-18 12:43:04.683277,-23.17
2026-06-18 12:43:04.693581,-21.06
2026-06-18 12:43:04.702375,-21.95
2026-06-18 12:43:04.706354,-21.84
2026-06-18 12:43:04.716780,-20.74
2026-06-18 12:43:04.716780,-17.65
2026-06-18 12:43:04.733114,-16.57
2026-06-18 12:43:04.741219,-20.47
2026-06-18 12:43:04.749218,-20.36
2026-06-18 12:43:04.757230,-20.26
2026-06-18 12:43:04.764512,-15.18
2026-06-18 12:43:04.766524,-17.1
2026-06-18 12:43:04.779370,-15.02
2026-06-18 12:43:04.783980,-15.94
2026-06-18 12:43:04.795003,-10.89
2026-06-18 12:43:04.804033,-6.85
2026-06-18 12:43:04.811687,-2.84
2026-06-18 12:43:04.819588,-1.83
2026-06-18 12:43:04.823786,-1.82
2026-06-18 12:43:04.833978,-4.8
2026-06-18 12:43:04.833978,-6.76
2026-06-18 12:43:04.849901,-6.73
2026-06-18 12:43:04.849901,-9.68
2026-06-18 12:43:04.866814,-9.63
2026-06-18 12:43:04.873452,-8.59
2026-06-18 12:43:04.882178,-11.53
2026-06-18 12:43:04.883178,-13.46
2026-06-18 12:43:04.897905,-13.4
2026-06-18 12:43:04.903591,-12.33
2026-06-18 12:43:04.911807,-12.27
2026-06-18 12:43:04.921235,-12.21
2026-06-18 12:43:04.928723,-11.16
2026-06-18 12:43:04.936720,-12.09
2026-06-18 12:43:04.941246,-13.03
2026-06-18 12:43:04.951714,-12.96
2026-06-18 12:43:04.955435,-11.9
2026-06-18 12:43:04.967192,-11.84
2026-06-18 12:43:04.973762,-7.81
2026-06-18 12:43:04.983956,-3.79
2026-06-18 12:43:04.983956,4.19
2026-06-18 12:43:04.998850,6.16
2026-06-18 12:43:05.005945,8.12
2026-06-18 12:43:05.015474,5.1
2026-06-18 12:43:05.016834,5.07
2026-06-18 12:43:05.029352,3.05
2026-06-18 12:43:05.038181,3.04
2026-06-18 12:43:05.046184,0.04
2026-06-18 12:43:05.049806,-1.95
2026-06-18 12:43:05.060305,-2.94
2026-06-18 12:43:05.069770,-2.92
2026-06-18 12:43:05.076891,-2.91
2026-06-18 12:43:05.083634,-6.87
2026-06-18 12:43:05.083634,-3.85
2026-06-18 12:43:05.099778,3.13
2026-06-18 12:43:05.099778,15.06
2026-06-18 12:43:05.115892,21.94
2026-06-18 12:43:05.117196,26.81
2026-06-18 12:43:05.132181,28.67
2026-06-18 12:43:05.133683,33.5
2026-06-18 12:43:05.147938,37.31
2026-06-18 12:43:05.150313,39.11
2026-06-18 12:43:05.161896,38.92
2026-06-18 12:43:05.166500,36.73
2026-06-18 12:43:05.177656,34.56
2026-06-18 12:43:05.183146,29.41
2026-06-18 12:43:05.193072,25.29
2026-06-18 12:43:05.202206,25.16
2026-06-18 12:43:05.206228,21.05
2026-06-18 12:43:05.216371,23.93
2026-06-18 12:43:05.216371,23.81
2026-06-18 12:43:05.233127,24.69
2026-06-18 12:43:05.240874,16.61
2026-06-18 12:43:05.248874,10.55
2026-06-18 12:43:05.256788,3.53
2026-06-18 12:43:05.264817,-2.45
2026-06-18 12:43:05.266805,-9.41
2026-06-18 12:43:05.279871,-16.32
2026-06-18 12:43:05.283119,-25.2
2026-06-18 12:43:05.294702,-26.07
2026-06-18 12:43:05.299716,-26.93
2026-06-18 12:43:05.310250,-23.81
2026-06-18 12:43:05.316414,-24.69
2026-06-18 12:43:05.325903,-28.54
2026-06-18 12:43:05.334903,-29.4
2026-06-18 12:43:05.339079,-27.26
2026-06-18 12:43:05.349829,-18.17
2026-06-18 12:43:05.349829,-12.11
2026-06-18 12:43:05.366412,-24.98
2026-06-18 12:43:05.373534,-50.73
2026-06-18 12:43:05.382119,-82.31
2026-06-18 12:43:05.383121,-84.89
2026-06-18 12:43:05.397783,-62.57
2026-06-18 12:43:05.399795,-35.39
2026-06-18 12:43:05.411816,-21.29
2026-06-18 12:43:05.416318,-9.24
2026-06-18 12:43:05.427530,-0.24
2026-06-18 12:43:05.433036,14.69
2026-06-18 12:43:05.444027,26.55
2026-06-18 12:43:05.451876,42.34
2026-06-18 12:43:05.460155,57.05
2026-06-18 12:43:05.466643,74.68
2026-06-18 12:43:05.473623,82.27
2026-06-18 12:43:05.483652,85.83
2026-06-18 12:43:05.489177,90.38
2026-06-18 12:43:05.498741,95.9
2026-06-18 12:43:05.499744,99.4
2026-06-18 12:43:05.515334,100.89
2026-06-18 12:43:05.516648,101.38
2026-06-18 12:43:05.529116,102.87
2026-06-18 12:43:05.536798,97.38
2026-06-18 12:43:05.544650,91.91
2026-06-18 12:43:05.549686,81.5
2026-06-18 12:43:05.560329,69.16
2026-06-18 12:43:05.569469,66.82
2026-06-18 12:43:05.575999,75.44
2026-06-18 12:43:05.585251,90.98
2026-06-18 12:43:05.589251,108.44
2026-06-18 12:43:05.599579,125.81
2026-06-18 12:43:05.608048,135.13
2026-06-18 12:43:05.616359,146.39
2026-06-18 12:43:05.616359,152.63
2026-06-18 12:43:05.631981,158.83
2026-06-18 12:43:05.633315,159.03
2026-06-18 12:43:05.647633,151.27
2026-06-18 12:43:05.649646,143.55
2026-06-18 12:43:05.663523,138.85
2026-06-18 12:43:05.670815,132.19
2026-06-18 12:43:05.678335,124.56
2026-06-18 12:43:05.686332,114.98
2026-06-18 12:43:05.693849,100.48
2026-06-18 12:43:05.699451,77.09
2026-06-18 12:43:05.708675,49.84
2026-06-18 12:43:05.717035,16.75
2026-06-18 12:43:05.722205,-9.2
2026-06-18 12:43:05.732952,-33.03
2026-06-18 12:43:05.739326,-53.76
2026-06-18 12:43:05.748755,-74.39
2026-06-18 12:43:05.749695,-86.95
2026-06-18 12:43:05.765272,-91.49
2026-06-18 12:43:05.772628,-87.06
2026-06-18 12:43:05.780153,-77.66
2026-06-18 12:43:05.788392,-67.33
2026-06-18 12:43:05.795418,-56.04
2026-06-18 12:43:05.799583,-49.79
2026-06-18 12:43:05.810274,-48.55
2026-06-18 12:43:05.819044,-46.32
2026-06-18 12:43:05.823046,-48.08
2026-06-18 12:43:05.833604,-52.81
2026-06-18 12:43:05.842265,-56.53
2026-06-18 12:43:05.849871,-64.2
2026-06-18 12:43:05.857427,-78.81
2026-06-18 12:43:05.866100,-107.27
2026-06-18 12:43:05.866100,-133.6
2026-06-18 12:43:05.882017,-149.84
2026-06-18 12:43:05.883499,-148.1
2026-06-18 12:43:05.897620,-137.41
2026-06-18 12:43:05.899619,-132.74
2026-06-18 12:43:05.911989,-134.07
2026-06-18 12:43:05.916104,-136.38
2026-06-18 12:43:05.927501,-137.69
2026-06-18 12:43:05.934300,-138.99
2026-06-18 12:43:05.943727,-145.26
2026-06-18 12:43:05.952578,-149.51
2026-06-18 12:43:05.955581,-147.77
2026-06-18 12:43:05.966468,-146.04
2026-06-18 12:43:05.975009,-144.31
2026-06-18 12:43:05.983107,-148.56
2026-06-18 12:43:05.991444,-147.82
2026-06-18 12:43:05.999416,-135.14
2026-06-18 12:43:06.006429,-123.52
2026-06-18 12:43:06.015420,-109.97
2026-06-18 12:43:06.016840,-96.48
2026-06-18 12:43:06.029042,-76.1
2026-06-18 12:43:06.032889,-49.85
2026-06-18 12:43:06.044698,-24.73
2026-06-18 12:43:06.049630,9.23
2026-06-18 12:43:06.060383,47.99
2026-06-18 12:43:06.069700,85.56
2026-06-18 12:43:06.075285,116.97
2026-06-18 12:43:06.083444,131.31
2026-06-18 12:43:06.090678,135.63
2026-06-18 12:43:06.099644,131.96
2026-06-18 12:43:06.099644,132.3
2026-06-18 12:43:06.116493,133.63
2026-06-18 12:43:06.116493,131.96
2026-06-18 12:43:06.131842,120.36
2026-06-18 12:43:06.133158,98.86
2026-06-18 12:43:06.147408,69.51
2026-06-18 12:43:06.149434,33.35
2026-06-18 12:43:06.162784,4.32
2026-06-18 12:43:06.166138,-16.59
2026-06-18 12:43:06.177954,-28.45
2026-06-18 12:43:06.182855,-34.28
2026-06-18 12:43:06.193819,-38.09
2026-06-18 12:43:06.202380,-47.85
2026-06-18 12:43:06.206404,-53.58
2026-06-18 12:43:06.217706,-58.28
2026-06-18 12:43:06.225360,-60.98
2026-06-18 12:43:06.233349,-62.66
2026-06-18 12:43:06.241131,-65.33
2026-06-18 12:43:06.249138,-64.01
2026-06-18 12:43:06.257133,-58.72
2026-06-18 12:43:06.265162,-53.45
2026-06-18 12:43:06.272180,-54.18
2026-06-18 12:43:06.280714,-48.93
2026-06-18 12:43:06.287733,-45.7
2026-06-18 12:43:06.295717,-42.49
2026-06-18 12:43:06.303990,-39.29
2026-06-18 12:43:06.310780,-36.11
2026-06-18 12:43:06.319048,-31.95
2026-06-18 12:43:06.327045,-25.82
2026-06-18 12:43:06.335057,-19.72
2026-06-18 12:43:06.339027,-14.65
2026-06-18 12:43:06.349571,-9.6
2026-06-18 12:43:06.357844,-0.59
2026-06-18 12:43:06.366508,5.38
2026-06-18 12:43:06.366508,17.29
2026-06-18 12:43:06.382008,25.17
2026-06-18 12:43:06.383655,34.99
2026-06-18 12:43:06.397419,48.74
2026-06-18 12:43:06.399436,72.38
2026-06-18 12:43:06.411846,96.89
2026-06-18 12:43:06.421302,111.33
2026-06-18 12:43:06.427486,95.85
2026-06-18 12:43:06.433379,60.55
2026-06-18 12:43:06.443692,31.39
2026-06-18 12:43:06.452533,27.25
2026-06-18 12:43:06.455531,40.05
2026-06-18 12:43:06.466757,55.77
2026-06-18 12:43:06.475951,57.48
2026-06-18 12:43:06.483067,55.21
2026-06-18 12:43:06.483067,49.95
2026-06-18 12:43:06.499498,47.72
2026-06-18 12:43:06.499498,40.51
2026-06-18 12:43:06.515095,34.34
2026-06-18 12:43:06.522086,31.18
2026-06-18 12:43:06.530847,32.02
2026-06-18 12:43:06.537834,30.87
2026-06-18 12:43:06.545849,29.72
2026-06-18 12:43:06.553858,27.58
2026-06-18 12:43:06.561479,26.45
2026-06-18 12:43:06.569572,24.32
2026-06-18 12:43:06.576300,22.21
2026-06-18 12:43:06.585029,16.13
2026-06-18 12:43:06.589007,13.06
2026-06-18 12:43:06.599697,10.01
2026-06-18 12:43:06.599697,9.96
2026-06-18 12:43:06.615934,10.91
2026-06-18 12:43:06.615934,14.84
2026-06-18 12:43:06.631638,18.74
2026-06-18 12:43:06.633162,19.64
2026-06-18 12:43:06.647283,22.53
2026-06-18 12:43:06.649284,28.39
2026-06-18 12:43:06.662400,35.21
2026-06-18 12:43:06.665975,43.99
2026-06-18 12:43:06.678015,51.73
2026-06-18 12:43:06.682715,57.44
2026-06-18 12:43:06.693406,54.17
2026-06-18 12:43:06.699474,48.92
2026-06-18 12:43:06.708813,38.73
2026-06-18 12:43:06.717091,31.57
2026-06-18 12:43:06.722282,23.45
2026-06-18 12:43:06.732845,14.38
2026-06-18 12:43:06.741043,8.34
2026-06-18 12:43:06.749053,6.3
2026-06-18 12:43:06.756518,1.3
2026-06-18 12:43:06.765035,-4.68
2026-06-18 12:43:06.772054,-12.61
2026-06-18 12:43:06.780768,-18.52
2026-06-18 12:43:06.782810,-25.39
2026-06-18 12:43:06.794557,-29.25
2026-06-18 12:43:06.799518,-31.09
2026-06-18 12:43:06.811466,-26.96
2026-06-18 12:43:06.819679,-15.88
2026-06-18 12:43:06.826857,-6.84
2026-06-18 12:43:06.834850,0.16
2026-06-18 12:43:06.838848,5.13
2026-06-18 12:43:06.850443,6.1
2026-06-18 12:43:06.858736,9.06
2026-06-18 12:43:06.865945,11.0
2026-06-18 12:43:06.873185,13.93
2026-06-18 12:43:06.881915,14.86
2026-06-18 12:43:06.882918,5.83
2026-06-18 12:43:06.897281,-5.15
2026-06-18 12:43:06.899702,-16.07
2026-06-18 12:43:06.911895,-21.96
2026-06-18 12:43:06.915957,-23.84
2026-06-18 12:43:06.928213,-17.75
2026-06-18 12:43:06.933218,-17.66
2026-06-18 12:43:06.943026,-15.58
2026-06-18 12:43:06.949427,-18.49
2026-06-18 12:43:06.958664,-26.35
2026-06-18 12:43:06.967795,-30.2
2026-06-18 12:43:06.975453,-26.07
2026-06-18 12:43:06.982872,-20.97
2026-06-18 12:43:06.991646,-22.85
2026-06-18 12:43:07.022422,-29.7
2026-06-18 12:43:07.026460,-30.55
2026-06-18 12:43:07.028475,-30.4
2026-06-18 12:43:07.028475,-28.25
2026-06-18 12:43:07.033220,-28.11
2026-06-18 12:43:07.041285,-23.0
2026-06-18 12:43:07.046190,-19.9
2026-06-18 12:43:07.047778,-17.81
2026-06-18 12:43:07.064617,-20.7
2026-06-18 12:43:07.069247,-20.6
2026-06-18 12:43:07.076949,-20.5
2026-06-18 12:43:07.085258,-20.4
2026-06-18 12:43:07.091277,-16.31
2026-06-18 12:43:07.099748,-8.27
2026-06-18 12:43:07.099748,-2.26
2026-06-18 12:43:07.114337,1.73
2026-06-18 12:43:07.114337,-0.27
2026-06-18 12:43:07.131209,-4.25
2026-06-18 12:43:07.139326,-8.2
2026-06-18 12:43:07.147789,-6.17
2026-06-18 12:43:07.147789,-9.13
2026-06-18 12:43:07.161775,-12.07
2026-06-18 12:43:07.170191,-19.97
2026-06-18 12:43:07.178306,-25.84
2026-06-18 12:43:07.181221,-26.7
2026-06-18 12:43:07.193081,-24.58
2026-06-18 12:43:07.197772,-22.47
2026-06-18 12:43:07.208732,-21.36
2026-06-18 12:43:07.214539,-18.27
2026-06-18 12:43:07.224711,-9.22
2026-06-18 12:43:07.234044,-6.19
2026-06-18 12:43:07.238057,-1.18
2026-06-18 12:43:07.247646,1.81
2026-06-18 12:43:07.247646,2.79
2026-06-18 12:43:07.264481,2.78
2026-06-18 12:43:07.272473,2.76
2026-06-18 12:43:07.279994,1.76
2026-06-18 12:43:07.288087,-1.24
2026-06-18 12:43:07.296068,-3.22
2026-06-18 12:43:07.303974,-9.18
2026-06-18 12:43:07.310970,-13.11
2026-06-18 12:43:07.314444,-11.05
2026-06-18 12:43:07.325789,-11.99
2026-06-18 12:43:07.331099,-13.92
2026-06-18 12:43:07.341550,-15.84
2026-06-18 12:43:07.347649,-15.76
2026-06-18 12:43:07.357191,-16.68
2026-06-18 12:43:07.366178,-10.63
2026-06-18 12:43:07.374452,2.36
2026-06-18 12:43:07.381099,19.26
2026-06-18 12:43:07.384510,26.13
2026-06-18 12:43:07.397799,9.09
2026-06-18 12:43:07.405049,-22.8
2026-06-18 12:43:07.413025,-46.56
2026-06-18 12:43:07.420042,-40.36
2026-06-18 12:43:07.427387,-15.29
2026-06-18 12:43:07.430948,5.69
2026-06-18 12:43:07.442995,10.63
2026-06-18 12:43:07.452115,4.61
2026-06-18 12:43:07.458460,0.61
2026-06-18 12:43:07.464349,0.6
2026-06-18 12:43:07.474285,1.6
2026-06-18 12:43:07.481104,-0.4
2026-06-18 12:43:07.490448,-3.39
2026-06-18 12:43:07.499099,-10.33
2026-06-18 12:43:07.504124,-11.28
2026-06-18 12:43:07.514284,-11.22
2026-06-18 12:43:07.522528,-11.16
2026-06-18 12:43:07.530414,-13.1
2026-06-18 12:43:07.530991,-6.07
2026-06-18 12:43:07.544540,4.91
2026-06-18 12:43:07.549727,7.87
2026-06-18 12:43:07.560576,5.84
2026-06-18 12:43:07.564430,4.81
2026-06-18 12:43:07.575898,10.76
2026-06-18 12:43:07.581005,20.66
2026-06-18 12:43:07.591509,22.54
2026-06-18 12:43:07.597719,18.45
2026-06-18 12:43:07.607204,17.36
2026-06-18 12:43:07.616637,19.27
2026-06-18 12:43:07.621693,18.18
2026-06-18 12:43:07.632474,18.08
2026-06-18 12:43:07.638539,16.0
2026-06-18 12:43:07.647649,16.92
2026-06-18 12:43:07.647649,14.84
2026-06-18 12:43:07.661859,7.8
2026-06-18 12:43:07.666261,1.8
2026-06-18 12:43:07.678602,-0.2
2026-06-18 12:43:07.681125,-7.17
2026-06-18 12:43:07.692856,-13.1
2026-06-18 12:43:07.697678,-17.02
2026-06-18 12:43:07.708582,-17.93
2026-06-18 12:43:07.714302,-23.81
2026-06-18 12:43:07.724168,-27.67
2026-06-18 12:43:07.731206,-26.53
2026-06-18 12:43:07.740006,-27.4
2026-06-18 12:43:07.749008,-27.26
2026-06-18 12:43:07.757009,-32.1
2026-06-18 12:43:07.765056,-30.94
2026-06-18 12:43:07.772102,-29.79
2026-06-18 12:43:07.780400,-29.64
2026-06-18 12:43:07.783948,-30.49
2026-06-18 12:43:07.794804,-28.35
2026-06-18 12:43:07.797581,-20.25
2026-06-18 12:43:07.810323,-11.19
2026-06-18 12:43:07.814460,-9.14
2026-06-18 12:43:07.825699,-6.11
2026-06-18 12:43:07.830972,-6.08
2026-06-18 12:43:07.841440,-6.05
2026-06-18 12:43:07.849864,-5.03
2026-06-18 12:43:07.857126,-5.0
2026-06-18 12:43:07.866861,-1.99
2026-06-18 12:43:07.872459,1.0
2026-06-18 12:43:07.880788,5.97
2026-06-18 12:43:07.880788,10.92
2026-06-18 12:43:07.897471,10.86
2026-06-18 12:43:07.900527,4.84
2026-06-18 12:43:07.912350,1.83
2026-06-18 12:43:07.914157,8.79
2026-06-18 12:43:07.928016,16.7
2026-06-18 12:43:07.930963,12.64
2026-06-18 12:43:07.943952,7.6
2026-06-18 12:43:07.950986,2.59
2026-06-18 12:43:07.958683,-0.41
2026-06-18 12:43:07.966382,-1.4
2026-06-18 12:43:07.974094,-2.39
2026-06-18 12:43:07.980851,-3.37
2026-06-18 12:43:07.990203,-2.36
2026-06-18 12:43:07.997642,1.63
2026-06-18 12:43:08.004954,7.59
2026-06-18 12:43:08.014104,11.53
2026-06-18 12:43:08.016127,13.47
2026-06-18 12:43:08.030231,11.41
2026-06-18 12:43:08.037987,7.37
2026-06-18 12:43:08.044106,2.36
2026-06-18 12:43:08.053838,2.35
2026-06-18 12:43:08.060834,3.33
2026-06-18 12:43:08.068153,5.3
2026-06-18 12:43:08.075064,2.29
2026-06-18 12:43:08.083704,-0.7
2026-06-18 12:43:08.092733,-6.67
2026-06-18 12:43:08.099182,-7.63
2026-06-18 12:43:08.108168,-5.6
2026-06-18 12:43:08.114069,0.39
2026-06-18 12:43:08.122621,4.37
2026-06-18 12:43:08.130470,8.33
2026-06-18 12:43:08.130470,4.31
2026-06-18 12:43:08.147342,6.28
2026-06-18 12:43:08.154721,7.24
2026-06-18 12:43:08.162734,3.22
2026-06-18 12:43:08.169752,1.22
2026-06-18 12:43:08.177426,-3.76
2026-06-18 12:43:08.180730,-2.75
2026-06-18 12:43:08.192913,-3.73
2026-06-18 12:43:08.199581,-1.72
2026-06-18 12:43:08.208479,-1.71
2026-06-18 12:43:08.214128,-2.7
2026-06-18 12:43:08.225090,-5.67
2026-06-18 12:43:08.231048,-13.6
2026-06-18 12:43:08.239948,-15.52
2026-06-18 12:43:08.249510,-13.46
2026-06-18 12:43:08.254521,-12.39
2026-06-18 12:43:08.264083,-13.33
2026-06-18 12:43:08.264083,-17.24
2026-06-18 12:43:08.280291,-16.16
2026-06-18 12:43:08.280816,-14.09
2026-06-18 12:43:08.294526,-12.03
2026-06-18 12:43:08.297596,-14.95
2026-06-18 12:43:08.310239,-17.86
2026-06-18 12:43:08.314207,-16.78
2026-06-18 12:43:08.325684,-16.7
2026-06-18 12:43:08.330814,-17.61
2026-06-18 12:43:08.341704,-20.5
2026-06-18 12:43:08.347324,-19.41
2026-06-18 12:43:08.356895,-18.31
2026-06-18 12:43:08.364359,-15.24
2026-06-18 12:43:08.372462,-18.15
2026-06-18 12:43:08.380979,-19.05
2026-06-18 12:43:08.387655,-17.96
2026-06-18 12:43:08.397339,-13.89
2026-06-18 12:43:08.397339,-5.86
2026-06-18 12:43:08.413469,10.09
2026-06-18 12:43:08.421025,26.95
2026-06-18 12:43:08.428096,33.78
2026-06-18 12:43:08.430842,13.71
2026-06-18 12:43:08.442854,-19.19
2026-06-18 12:43:08.447392,-35.01
2026-06-18 12:43:08.458794,-19.91
2026-06-18 12:43:08.464142,3.07
2026-06-18 12:43:08.474182,18.98
2026-06-18 12:43:08.482154,14.9
2026-06-18 12:43:08.489847,11.84
2026-06-18 12:43:08.499349,15.76
2026-06-18 12:43:08.504358,18.67
2026-06-18 12:43:08.513974,16.58
2026-06-18 12:43:08.515982,14.51
2026-06-18 12:43:08.530660,16.43
2026-06-18 12:43:08.530660,10.38
2026-06-18 12:43:08.544371,-8.58
2026-06-18 12:43:08.549202,-13.51
2026-06-18 12:43:08.560186,12.43
2026-06-18 12:43:08.569462,72.06
2026-06-18 12:43:08.576500,117.47
2026-06-18 12:43:08.585014,104.95
2026-06-18 12:43:08.593024,73.58
2026-06-18 12:43:08.597256,42.36
2026-06-18 12:43:08.607825,-1.63
2026-06-18 12:43:08.613960,-51.37
2026-06-18 12:43:08.622581,-27.23
2026-06-18 12:43:08.631794,114.19
2026-06-18 12:43:08.637602,257.9
2026-06-18 12:43:08.647323,339.19
2026-06-18 12:43:08.649334,440.98
2026-06-18 12:43:08.663405,644.74
2026-06-18 12:43:08.666720,888.27
2026-06-18 12:43:08.677270,1028.11
2026-06-18 12:43:08.685946,999.09
2026-06-18 12:43:08.693727,931.41
2026-06-18 12:43:08.697399,990.43
2026-06-18 12:43:08.709849,1248.16
2026-06-18 12:43:08.713990,1590.17
2026-06-18 12:43:08.724165,1901.61
2026-06-18 12:43:08.730668,2168.71
2026-06-18 12:43:08.739733,2457.36
2026-06-18 12:43:08.747402,2805.27
2026-06-18 12:43:08.755195,3062.87
2026-06-18 12:43:08.763928,3195.82
2026-06-18 12:43:08.763928,3279.34
2026-06-18 12:43:08.780160,3401.24
2026-06-18 12:43:08.788173,3557.37
2026-06-18 12:43:08.795506,3645.05
2026-06-18 12:43:08.803549,3632.8
2026-06-18 12:43:08.811663,3532.05
2026-06-18 12:43:08.819700,3374.09
2026-06-18 12:43:08.826744,3245.78
2026-06-18 12:43:08.834688,3095.23
2026-06-18 12:43:08.842723,2912.59
2026-06-18 12:43:08.849722,2812.46
2026-06-18 12:43:08.849722,2887.95
2026-06-18 12:43:08.863739,3145.14
2026-06-18 12:43:08.863739,3455.78
2026-06-18 12:43:08.881915,3669.34
2026-06-18 12:43:08.889431,3680.84
2026-06-18 12:43:08.897432,3499.26
2026-06-18 12:43:08.904942,3231.02
2026-06-18 12:43:08.913293,2901.44
2026-06-18 12:43:08.920296,2505.85
2026-06-18 12:43:08.928514,2033.63
2026-06-18 12:43:08.936867,1493.13
2026-06-18 12:43:08.944125,1096.61
2026-06-18 12:43:08.947193,973.72
2026-06-18 12:43:08.958473,1069.35
2026-06-18 12:43:08.967275,1179.42
2026-06-18 12:43:08.974112,1112.83
2026-06-18 12:43:08.980501,905.28
2026-06-18 12:43:08.989773,686.83
2026-06-18 12:43:08.998699,551.06
2026-06-18 12:43:09.003722,433.88
2026-06-18 12:43:09.013622,287.43
2026-06-18 12:43:09.022317,152.67
2026-06-18 12:43:09.030599,148.92
2026-06-18 12:43:09.030599,286.48
2026-06-18 12:43:09.044494,526.83
2026-06-18 12:43:09.047257,690.36
2026-06-18 12:43:09.060443,670.99
2026-06-18 12:43:09.063871,501.47
2026-06-18 12:43:09.076149,293.0
2026-06-18 12:43:09.080558,199.99
2026-06-18 12:43:09.092924,434.81
2026-06-18 12:43:09.100090,955.01
2026-06-18 12:43:09.108351,1285.55
2026-06-18 12:43:09.116351,892.07
2026-06-18 12:43:09.124288,-121.32
2026-06-18 12:43:09.132286,-1042.09
2026-06-18 12:43:09.138283,-1306.52
2026-06-18 12:43:09.147310,-1175.61
2026-06-18 12:43:09.154101,-1290.13
2026-06-18 12:43:09.163318,-1762.27
2026-06-18 12:43:09.170367,-2169.37
2026-06-18 12:43:09.177262,-2151.56
2026-06-18 12:43:09.182611,-1809.47
2026-06-18 12:43:09.192868,-1405.41
2026-06-18 12:43:09.197346,-1114.8
2026-06-18 12:43:09.209357,-864.46
2026-06-18 12:43:09.215328,-721.83
2026-06-18 12:43:09.224619,-728.17
2026-06-18 12:43:09.232604,-711.6
2026-06-18 12:43:09.239636,-401.58
2026-06-18 12:43:09.249458,558.61
2026-06-18 12:43:09.256462,2074.19
2026-06-18 12:43:09.264465,3670.74
2026-06-18 12:43:09.272469,4532.96
2026-06-18 12:43:09.280469,4449.6
2026-06-18 12:43:09.287848,3954.73
2026-06-18 12:43:09.296244,3374.77
2026-06-18 12:43:09.304183,2831.54
2026-06-18 12:43:09.311537,1940.79
2026-06-18 12:43:09.319550,439.58
2026-06-18 12:43:09.327544,-1497.89
2026-06-18 12:43:09.334512,-3428.66
2026-06-18 12:43:09.342951,-4776.66
2026-06-18 12:43:09.350957,-5730.86
2026-06-18 12:43:09.357880,-6500.19
2026-06-18 12:43:09.363883,-7017.93
2026-06-18 12:43:09.363883,-6927.12
2026-06-18 12:43:09.380583,-6097.48
2026-06-18 12:43:09.380583,-5211.29
2026-06-18 12:43:09.397157,-4652.91
2026-06-18 12:43:09.397157,-4307.27
2026-06-18 12:43:09.413217,-3945.44
2026-06-18 12:43:09.419790,-3586.42
2026-06-18 12:43:09.427804,-3360.53
2026-06-18 12:43:09.430468,-3158.66
2026-06-18 12:43:09.443183,-2962.77
2026-06-18 12:43:09.452596,-2766.86
2026-06-18 12:43:09.460096,-2585.87
2026-06-18 12:43:09.467172,-2415.73
2026-06-18 12:43:09.474102,-2251.42
2026-06-18 12:43:09.480450,-2118.77
2026-06-18 12:43:09.489780,-2038.53
2026-06-18 12:43:09.499273,-1973.61
2026-06-18 12:43:09.503276,-1919.96
2026-06-18 12:43:09.513782,-1858.62
2026-06-18 12:43:09.513782,-1797.59
2026-06-18 12:43:09.530411,-1724.92
2026-06-18 12:43:09.530411,-1653.61
2026-06-18 12:43:09.544521,-1580.67
2026-06-18 12:43:09.549223,-1529.98
2026-06-18 12:43:09.560037,-1501.43
2026-06-18 12:43:09.569205,-1503.88
2026-06-18 12:43:09.576146,-1532.18
2026-06-18 12:43:09.580379,-1586.21
2026-06-18 12:43:09.591215,-1624.05
2026-06-18 12:43:09.597039,-1629.86
2026-06-18 12:43:09.606812,-1591.86
2026-06-18 12:43:09.613742,-1533.15
2026-06-18 12:43:09.624012,-1485.69
2026-06-18 12:43:09.632580,-1443.43
2026-06-18 12:43:09.637589,-1411.34
2026-06-18 12:43:09.647053,-1373.44
2026-06-18 12:43:09.647053,-1333.74
2026-06-18 12:43:09.663231,-1287.27
2026-06-18 12:43:09.670593,-1234.07
2026-06-18 12:43:09.678572,-1182.13
2026-06-18 12:43:09.685810,-1134.43
2026-06-18 12:43:09.693423,-1091.94
2026-06-18 12:43:09.698963,-1052.65
2026-06-18 12:43:09.708447,-1018.53
2026-06-18 12:43:09.715861,-984.58
2026-06-18 12:43:09.724079,-951.8
2026-06-18 12:43:09.730538,-931.12
2026-06-18 12:43:09.740412,-917.51
2026-06-18 12:43:09.747133,-914.91
2026-06-18 12:43:09.756196,-918.3
2026-06-18 12:43:09.763696,-920.67
2026-06-18 12:43:09.770546,-923.03
2026-06-18 12:43:09.780396,-923.39
2026-06-18 12:43:09.788149,-920.77
2026-06-18 12:43:09.796142,-908.2
2026-06-18 12:43:09.803161,-893.71
2026-06-18 12:43:09.811317,-881.28
2026-06-18 12:43:09.813552,-866.93
2026-06-18 12:43:09.826119,-848.66
2026-06-18 12:43:09.832261,-831.48
2026-06-18 12:43:09.841294,-811.41
2026-06-18 12:43:09.847049,-792.42
2026-06-18 12:43:09.856996,-771.55
2026-06-18 12:43:09.863773,-744.8
2026-06-18 12:43:09.872568,-718.2
2026-06-18 12:43:09.881884,-690.72
2026-06-18 12:43:09.886948,-664.39
2026-06-18 12:43:09.896986,-631.21
2026-06-18 12:43:09.896986,-593.23
2026-06-18 12:43:09.913052,-553.45
2026-06-18 12:43:09.913539,-519.84
2026-06-18 12:43:09.927176,-489.38
2026-06-18 12:43:09.932425,-457.08
2026-06-18 12:43:09.943717,-424.95
2026-06-18 12:43:09.947018,-395.96
2026-06-18 12:43:09.960025,-369.1
2026-06-18 12:43:09.968137,-350.34
2026-06-18 12:43:09.975710,-332.67
2026-06-18 12:43:09.981410,-317.08
2026-06-18 12:43:09.990400,-297.58
2026-06-18 12:43:09.999559,-282.16
2026-06-18 12:43:10.006356,-265.83
2026-06-18 12:43:10.013734,-248.58
2026-06-18 12:43:10.020393,-238.38
2026-06-18 12:43:10.030187,-225.25
2026-06-18 12:43:10.033379,-216.16
2026-06-18 12:43:10.044410,-201.15
2026-06-18 12:43:10.046955,-179.25
2026-06-18 12:43:10.060056,-159.45
2026-06-18 12:43:10.063686,-143.73
2026-06-18 12:43:10.075789,-135.05
2026-06-18 12:43:10.082295,-129.4
2026-06-18 12:43:10.091369,-123.78
2026-06-18 12:43:10.096970,-116.19
2026-06-18 12:43:10.106888,-116.61
2026-06-18 12:43:10.113628,-124.98
2026-06-18 12:43:10.122454,-137.29
2026-06-18 12:43:10.132210,-149.54
2026-06-18 12:43:10.137266,-154.76
2026-06-18 12:43:10.146798,-156.97
2026-06-18 12:43:10.148815,-161.16
2026-06-18 12:43:10.163396,-160.36
2026-06-18 12:43:10.163396,-157.56
2026-06-18 12:43:10.177259,-151.8
2026-06-18 12:43:10.181662,-149.05
2026-06-18 12:43:10.192848,-146.32
2026-06-18 12:43:10.201339,-134.64
2026-06-18 12:43:10.208513,-118.05
2026-06-18 12:43:10.213466,-102.53
2026-06-18 12:43:10.224372,-91.07
2026-06-18 12:43:10.230371,-76.69
2026-06-18 12:43:10.240229,-66.36
2026-06-18 12:43:10.249311,-58.06
2026-06-18 12:43:10.253681,-45.83
2026-06-18 12:43:10.263286,-19.73
2026-06-18 12:43:10.271995,4.24
2026-06-18 12:43:10.280094,12.18
2026-06-18 12:43:10.281605,-1.81
2026-06-18 12:43:10.296294,-16.72
2026-06-18 12:43:10.303300,-15.65
2026-06-18 12:43:10.311304,-8.6
2026-06-18 12:43:10.313404,-3.58
2026-06-18 12:43:10.325971,4.39
2026-06-18 12:43:10.330149,12.33
2026-06-18 12:43:10.341219,20.23
2026-06-18 12:43:10.346909,22.12
2026-06-18 12:43:10.356785,24.0
2026-06-18 12:43:10.363625,26.86
2026-06-18 12:43:10.372506,32.7
2026-06-18 12:43:10.381716,42.49
2026-06-18 12:43:10.386760,57.2
2026-06-18 12:43:10.397855,66.86
2026-06-18 12:43:10.404845,73.49
2026-06-18 12:43:10.413004,75.12
2026-06-18 12:43:10.420004,77.73
2026-06-18 12:43:10.427304,83.31
2026-06-18 12:43:10.430113,90.85
2026-06-18 12:43:10.443680,98.36
2026-06-18 12:43:10.451527,101.84
2026-06-18 12:43:10.459377,100.34
2026-06-18 12:43:10.463618,97.85
2026-06-18 12:43:10.475723,89.4
2026-06-18 12:43:10.482937,84.97
2026-06-18 12:43:10.491502,89.52
2026-06-18 12:43:10.496940,105.99
2026-06-18 12:43:10.505534,118.39
2026-06-18 12:43:10.514793,116.81
2026-06-18 12:43:10.519884,103.29
2026-06-18 12:43:10.530141,97.8
2026-06-18 12:43:10.530141,111.24
2026-06-18 12:43:10.546150,132.57
2026-06-18 12:43:10.546834,149.82
2026-06-18 12:43:10.560021,158.02
2026-06-18 12:43:10.563392,159.22
2026-06-18 12:43:10.576632,156.44
2026-06-18 12:43:10.582158,146.7
2026-06-18 12:43:10.591307,131.04
2026-06-18 12:43:10.596724,121.43
2026-06-18 12:43:10.607434,112.87
2026-06-18 12:43:10.615950,103.35
2026-06-18 12:43:10.624110,94.87
2026-06-18 12:43:10.632131,86.43
2026-06-18 12:43:10.639107,85.01
2026-06-18 12:43:10.646856,78.61
2026-06-18 12:43:10.652922,72.25
2026-06-18 12:43:10.663332,78.85
2026-06-18 12:43:10.670856,92.39
2026-06-18 12:43:10.677129,111.83
2026-06-18 12:43:10.682563,132.16
2026-06-18 12:43:10.692850,154.39
2026-06-18 12:43:10.696734,174.51
2026-06-18 12:43:10.708246,185.58
2026-06-18 12:43:10.713402,188.63
2026-06-18 12:43:10.724092,185.7
2026-06-18 12:43:10.730053,178.8
2026-06-18 12:43:10.739615,176.91
2026-06-18 12:43:10.746761,171.05
2026-06-18 12:43:10.755495,155.27
2026-06-18 12:43:10.764635,135.59
2026-06-18 12:43:10.769688,112.03
2026-06-18 12:43:10.780007,96.54
2026-06-18 12:43:10.782596,82.13
2026-06-18 12:43:10.796095,67.79
2026-06-18 12:43:10.803729,55.51
2026-06-18 12:43:10.811466,56.23
2026-06-18 12:43:10.819575,57.93
2026-06-18 12:43:10.826599,60.63
2026-06-18 12:43:10.834575,65.3
2026-06-18 12:43:10.842541,72.93
2026-06-18 12:43:10.849544,87.5
2026-06-18 12:43:10.858075,99.0
2026-06-18 12:43:10.863517,110.44
2026-06-18 12:43:10.872440,119.84
2026-06-18 12:43:10.880215,127.2
2026-06-18 12:43:10.888285,137.51
2026-06-18 12:43:10.896584,149.76
2026-06-18 12:43:10.904508,161.94
2026-06-18 12:43:10.912865,179.04
2026-06-18 12:43:10.920748,195.06
2026-06-18 12:43:10.927104,212.99
2026-06-18 12:43:10.929974,230.83
2026-06-18 12:43:10.942690,249.58
2026-06-18 12:43:10.952103,268.23
2026-06-18 12:43:10.959344,290.77
2026-06-18 12:43:10.966314,313.2
2026-06-18 12:43:10.966314,325.56
2026-06-18 12:43:10.982608,320.95
2026-06-18 12:43:10.982608,303.42
2026-06-18 12:43:10.998111,285.99
2026-06-18 12:43:11.006945,275.6
2026-06-18 12:43:11.013208,264.27
2026-06-18 12:43:11.021812,256.98
2026-06-18 12:43:11.029805,250.72
2026-06-18 12:43:11.035388,249.47
2026-06-18 12:43:11.046069,249.22
2026-06-18 12:43:11.053983,251.95
2026-06-18 12:43:11.060470,259.64
2026-06-18 12:43:11.068738,265.31
2026-06-18 12:43:11.075739,267.97
2026-06-18 12:43:11.082870,270.61
2026-06-18 12:43:11.091190,270.25
2026-06-18 12:43:11.100664,269.89
2026-06-18 12:43:11.108104,264.56
2026-06-18 12:43:11.116143,265.23
2026-06-18 12:43:11.124387,263.9
2026-06-18 12:43:11.129849,264.57
2026-06-18 12:43:11.137340,262.26
2026-06-18 12:43:11.146478,260.94
2026-06-18 12:43:11.154909,261.63
2026-06-18 12:43:11.163152,266.29
2026-06-18 12:43:11.170852,263.96
2026-06-18 12:43:11.177081,259.66
2026-06-18 12:43:11.186280,251.4
2026-06-18 12:43:11.193409,251.13
2026-06-18 12:43:11.198603,250.87
2026-06-18 12:43:11.208331,252.6
2026-06-18 12:43:11.213322,249.35
2026-06-18 12:43:11.223977,247.11
2026-06-18 12:43:11.229852,249.85
2026-06-18 12:43:11.239540,247.61
2026-06-18 12:43:11.246489,244.38
2026-06-18 12:43:11.255190,235.2
2026-06-18 12:43:11.264480,229.05
2026-06-18 12:43:11.272531,225.91
2026-06-18 12:43:11.280537,224.78
2026-06-18 12:43:11.288112,215.7
2026-06-18 12:43:11.296102,206.66
2026-06-18 12:43:11.303125,193.69
2026-06-18 12:43:11.311052,184.76
2026-06-18 12:43:11.313225,174.88
2026-06-18 12:43:11.325676,165.05
2026-06-18 12:43:11.329931,153.28
2026-06-18 12:43:11.341286,147.54
2026-06-18 12:43:11.346582,145.81
2026-06-18 12:43:11.356847,146.07
2026-06-18 12:43:11.365916,143.35
2026-06-18 12:43:11.373465,142.64
2026-06-18 12:43:11.381496,140.93
2026-06-18 12:43:11.390017,139.23
2026-06-18 12:43:11.396631,140.52
2026-06-18 12:43:11.405194,144.79
2026-06-18 12:43:11.413026,154.02
2026-06-18 12:43:11.421077,153.25
2026-06-18 12:43:11.427206,141.54
2026-06-18 12:43:11.429846,126.9
2026-06-18 12:43:11.442846,123.28
2026-06-18 12:43:11.446519,133.61
2026-06-18 12:43:11.458336,146.87
2026-06-18 12:43:11.463900,156.09
2026-06-18 12:43:11.473966,157.3
2026-06-18 12:43:11.483356,154.52
2026-06-18 12:43:11.489485,152.75
2026-06-18 12:43:11.498327,149.01
2026-06-18 12:43:11.505676,146.27
2026-06-18 12:43:11.512988,144.54
2026-06-18 12:43:11.522187,142.83
2026-06-18 12:43:11.529958,138.13
2026-06-18 12:43:11.531647,136.45
2026-06-18 12:43:11.545889,138.75
2026-06-18 12:43:11.548370,143.03
2026-06-18 12:43:11.560084,147.29
2026-06-18 12:43:11.566815,146.55
2026-06-18 12:43:11.575554,141.84
2026-06-18 12:43:11.584356,139.14
2026-06-18 12:43:11.592638,137.45
2026-06-18 12:43:11.600607,140.74
2026-06-18 12:43:11.607609,142.03
2026-06-18 12:43:11.613298,143.31
2026-06-18 12:43:11.622372,140.6
2026-06-18 12:43:11.631256,141.89
2026-06-18 12:43:11.636272,138.2
2026-06-18 12:43:11.646339,141.48
2026-06-18 12:43:11.653887,142.77
2026-06-18 12:43:11.663231,146.03
2026-06-18 12:43:11.668159,144.31
2026-06-18 12:43:11.677130,145.58
2026-06-18 12:43:11.683605,140.87
2026-06-18 12:43:11.693188,132.2
2026-06-18 12:43:11.696337,121.59
2026-06-18 12:43:11.708276,116.01
2026-06-18 12:43:11.713140,111.45
2026-06-18 12:43:11.723989,107.91
2026-06-18 12:43:11.731698,104.38
2026-06-18 12:43:11.739559,103.86
2026-06-18 12:43:11.748545,103.34
2026-06-18 12:43:11.755182,98.85
2026-06-18 12:43:11.764530,93.38
2026-06-18 12:43:11.769569,92.91
2026-06-18 12:43:11.779678,97.42
2026-06-18 12:43:11.783764,100.91
2026-06-18 12:43:11.795747,95.43
2026-06-18 12:43:11.803597,88.99
2026-06-18 12:43:11.810605,90.53
2026-06-18 12:43:11.818845,92.07
2026-06-18 12:43:11.825833,96.58
2026-06-18 12:43:11.834219,97.1
2026-06-18 12:43:11.841091,100.59
2026-06-18 12:43:11.846304,104.07
2026-06-18 12:43:11.856752,106.53
2026-06-18 12:43:11.863198,105.0
2026-06-18 12:43:11.872415,100.5
2026-06-18 12:43:11.882299,103.98
2026-06-18 12:43:11.886836,103.46
2026-06-18 12:43:11.896407,100.95
2026-06-18 12:43:11.905197,99.45
2026-06-18 12:43:11.912846,98.95
2026-06-18 12:43:11.914246,99.45
2026-06-18 12:43:11.927374,96.97
2026-06-18 12:43:11.929822,97.48
2026-06-18 12:43:11.942778,100.97
2026-06-18 12:43:11.946275,101.46
2026-06-18 12:43:11.958363,97.97
2026-06-18 12:43:11.962993,94.49
2026-06-18 12:43:11.974266,96.01
2026-06-18 12:43:11.979766,99.51
2026-06-18 12:43:11.989540,97.02
2026-06-18 12:43:11.998866,98.53
2026-06-18 12:43:12.002887,100.02
2026-06-18 12:43:12.012795,102.51
2026-06-18 12:43:12.012795,102.99
2026-06-18 12:43:12.030105,102.48
2026-06-18 12:43:12.037742,97.98
2026-06-18 12:43:12.045515,92.52
2026-06-18 12:43:12.046213,95.04
2026-06-18 12:43:12.059974,93.57
2026-06-18 12:43:12.062979,95.09
2026-06-18 12:43:12.077163,92.63
2026-06-18 12:43:12.084283,92.16
2026-06-18 12:43:12.091363,93.69
2026-06-18 12:43:12.096402,99.19
2026-06-18 12:43:12.106786,98.7
2026-06-18 12:43:12.112950,95.22
2026-06-18 12:43:12.123275,92.75
2026-06-18 12:43:12.132080,90.3
2026-06-18 12:43:12.139246,89.85
2026-06-18 12:43:12.147550,92.38
2026-06-18 12:43:12.154526,96.9
2026-06-18 12:43:12.162750,99.4
2026-06-18 12:43:12.164761,96.91
2026-06-18 12:43:12.177561,94.44
2026-06-18 12:43:12.184360,92.97
2026-06-18 12:43:12.193569,93.5
2026-06-18 12:43:12.196220,94.03
2026-06-18 12:43:12.208328,92.56
2026-06-18 12:43:12.212953,91.1
2026-06-18 12:43:12.223920,90.65
2026-06-18 12:43:12.229578,89.2
2026-06-18 12:43:12.240180,84.77
2026-06-18 12:43:12.246395,82.36
2026-06-18 12:43:12.255355,83.94
2026-06-18 12:43:12.264141,87.5
2026-06-18 12:43:12.269178,86.07
2026-06-18 12:43:12.279437,84.64
2026-06-18 12:43:12.284539,87.2
2026-06-18 12:43:12.296198,88.76
2026-06-18 12:43:12.296198,86.32
2026-06-18 12:43:12.310541,82.91
2026-06-18 12:43:12.319182,82.49
2026-06-18 12:43:12.326402,84.07
2026-06-18 12:43:12.334728,83.65
2026-06-18 12:43:12.342691,84.23
2026-06-18 12:43:12.349822,82.81
2026-06-18 12:43:12.357820,80.41
2026-06-18 12:43:12.365663,78.01
2026-06-18 12:43:12.373703,76.63
2026-06-18 12:43:12.381906,77.24
2026-06-18 12:43:12.389395,79.84
2026-06-18 12:43:12.396166,85.41
2026-06-18 12:43:12.396166,84.98
2026-06-18 12:43:12.412874,81.57
2026-06-18 12:43:12.412874,78.18
2026-06-18 12:43:12.427021,80.77
2026-06-18 12:43:12.436617,80.37
2026-06-18 12:43:12.442755,79.97
2026-06-18 12:43:12.446085,76.58
2026-06-18 12:43:12.458721,76.2
2026-06-18 12:43:12.467626,75.82
2026-06-18 12:43:12.475637,73.45
2026-06-18 12:43:12.482640,72.09
2026-06-18 12:43:12.489577,72.72
2026-06-18 12:43:12.498827,74.35
2026-06-18 12:43:12.502825,74.97
2026-06-18 12:43:12.514799,73.6
2026-06-18 12:43:12.514799,70.25
2026-06-18 12:43:12.529526,69.9
2026-06-18 12:43:12.529526,75.52
2026-06-18 12:43:12.546091,83.1
2026-06-18 12:43:12.551955,84.68
2026-06-18 12:43:12.560749,73.31
2026-06-18 12:43:12.562712,54.04
2026-06-18 12:43:12.575460,39.84
2026-06-18 12:43:12.584561,41.63
2026-06-18 12:43:12.592616,55.35
2026-06-18 12:43:12.596121,69.0
2026-06-18 12:43:12.606770,70.65
2026-06-18 12:43:12.612714,67.31
2026-06-18 12:43:12.622479,63.99
2026-06-18 12:43:12.631879,61.68
2026-06-18 12:43:12.635925,65.35
2026-06-18 12:43:12.646083,63.03
2026-06-18 12:43:12.648100,61.72
2026-06-18 12:43:12.662858,60.42
2026-06-18 12:43:12.662858,64.1
2026-06-18 12:43:12.678872,62.78
2026-06-18 12:43:12.686723,61.47
2026-06-18 12:43:12.691252,57.18
2026-06-18 12:43:12.700970,62.87
2026-06-18 12:43:12.700970,71.51
2026-06-18 12:43:12.716584,75.13
2026-06-18 12:43:12.716584,66.8
2026-06-18 12:43:12.731906,64.47
2026-06-18 12:43:12.731906,62.16
2026-06-18 12:43:12.747889,66.82
2026-06-18 12:43:12.747889,69.47
2026-06-18 12:43:12.762915,72.11
2026-06-18 12:43:12.762915,73.74
2026-06-18 12:43:12.779629,72.38
2026-06-18 12:43:12.785192,71.02
2026-06-18 12:43:12.795412,71.66
2026-06-18 12:43:12.803426,73.29
2026-06-18 12:43:12.811665,70.94
2026-06-18 12:43:12.818682,66.6
2026-06-18 12:43:12.827123,58.31
2026-06-18 12:43:12.834854,52.05
2026-06-18 12:43:12.842855,46.81
2026-06-18 12:43:12.850260,44.59
2026-06-18 12:43:12.858317,42.38
2026-06-18 12:43:12.866265,35.2
2026-06-18 12:43:12.873320,27.06
2026-06-18 12:43:12.881560,22.95
2026-06-18 12:43:12.889000,22.83
2026-06-18 12:43:12.897610,25.7
2026-06-18 12:43:12.904608,24.58
2026-06-18 12:43:12.912569,22.47
2026-06-18 12:43:12.920566,23.35
2026-06-18 12:43:12.928949,22.24
2026-06-18 12:43:12.936105,20.14
2026-06-18 12:43:12.936105,20.04
2026-06-18 12:43:12.952124,21.93
2026-06-18 12:43:12.952124,27.79
2026-06-18 12:43:12.966386,35.61
2026-06-18 12:43:12.966386,38.41
2026-06-18 12:43:12.982218,38.22
2026-06-18 12:43:12.985304,35.05
2026-06-18 12:43:12.997941,27.91
2026-06-18 12:43:12.997941,25.78
2026-06-18 12:43:13.012614,27.64
2026-06-18 12:43:13.012614,29.49
2026-06-18 12:43:13.029422,28.35
2026-06-18 12:43:13.033872,23.23
2026-06-18 12:43:13.046086,22.12
2026-06-18 12:43:13.052555,23.0
2026-06-18 12:43:13.060208,25.87
2026-06-18 12:43:13.068229,28.73
2026-06-18 12:43:13.076621,28.58
2026-06-18 12:43:13.084042,25.46
2026-06-18 12:43:13.091196,22.34
2026-06-18 12:43:13.100015,20.24
2026-06-18 12:43:13.106662,21.14
2026-06-18 12:43:13.116195,21.03
2026-06-18 12:43:13.123192,27.89
2026-06-18 12:43:13.131431,31.73
2026-06-18 12:43:13.138457,34.56
2026-06-18 12:43:13.147243,32.39
2026-06-18 12:43:13.152473,30.24
2026-06-18 12:43:13.162664,26.11
2026-06-18 12:43:13.162664,24.99
2026-06-18 12:43:13.178801,22.87
2026-06-18 12:43:13.185659,21.76
2026-06-18 12:43:13.192719,23.64
2026-06-18 12:43:13.196118,24.52
2026-06-18 12:43:13.208388,26.39
2026-06-18 12:43:13.212729,26.26
2026-06-18 12:43:13.223772,24.13
2026-06-18 12:43:13.231468,20.03
2026-06-18 12:43:13.239958,18.94
2026-06-18 12:43:13.246039,18.84
2026-06-18 12:43:13.255297,16.76
2026-06-18 12:43:13.264692,14.69
2026-06-18 12:43:13.269751,17.6
2026-06-18 12:43:13.279224,16.51
2026-06-18 12:43:13.285635,16.43
2026-06-18 12:43:13.296023,16.35
2026-06-18 12:43:13.296023,17.26
2026-06-18 12:43:13.309808,24.14
2026-06-18 12:43:13.312541,26.01
2026-06-18 12:43:13.326319,21.9
2026-06-18 12:43:13.335127,14.83
2026-06-18 12:43:13.342138,16.74
2026-06-18 12:43:13.350406,20.64
2026-06-18 12:43:13.357247,17.55
2026-06-18 12:43:13.362542,15.47
2026-06-18 12:43:13.372434,20.37
2026-06-18 12:43:13.381377,22.26
2026-06-18 12:43:13.388950,16.18
2026-06-18 12:43:13.396932,17.09
2026-06-18 12:43:13.405178,14.02
2026-06-18 12:43:13.412894,14.95
2026-06-18 12:43:13.412894,12.88
2026-06-18 12:43:13.428703,10.83
2026-06-18 12:43:13.431355,11.77
2026-06-18 12:43:13.442672,16.68
2026-06-18 12:43:13.445794,23.56
2026-06-18 12:43:13.458314,23.45
2026-06-18 12:43:13.462631,21.34
2026-06-18 12:43:13.473889,19.24
2026-06-18 12:43:13.479559,18.15
2026-06-18 12:43:13.490076,15.08
2026-06-18 12:43:13.496034,10.03
2026-06-18 12:43:13.504982,10.97
2026-06-18 12:43:13.515006,19.87
2026-06-18 12:43:13.519019,24.75
2026-06-18 12:43:13.529136,22.63
2026-06-18 12:43:13.529136,12.57
2026-06-18 12:43:13.545923,8.53
2026-06-18 12:43:13.553389,10.47
2026-06-18 12:43:13.561617,17.39
2026-06-18 12:43:13.568993,17.3
2026-06-18 12:43:13.577070,11.24
2026-06-18 12:43:13.579773,14.17
2026-06-18 12:43:13.591136,16.09
2026-06-18 12:43:13.595920,18.0
2026-06-18 12:43:13.607610,16.92
2026-06-18 12:43:13.612548,15.84
2026-06-18 12:43:13.622220,16.75
2026-06-18 12:43:13.631843,15.67
2026-06-18 12:43:13.637589,15.59
2026-06-18 12:43:13.645665,13.53
2026-06-18 12:43:13.655132,10.47
2026-06-18 12:43:13.663137,8.43
2026-06-18 12:43:13.671176,8.39
2026-06-18 12:43:13.678713,10.34
2026-06-18 12:43:13.686373,20.24
2026-06-18 12:43:13.686373,31.08
2026-06-18 12:43:13.700809,29.93
2026-06-18 12:43:13.700809,9.88
2026-06-18 12:43:13.716818,-10.07
2026-06-18 12:43:13.716818,-19.97
2026-06-18 12:43:13.732082,-7.93
2026-06-18 12:43:13.732082,11.02
2026-06-18 12:43:13.747599,19.92
2026-06-18 12:43:13.747599,16.83
2026-06-18 12:43:13.762311,13.76
2026-06-18 12:43:13.762311,13.69
2026-06-18 12:43:13.779465,19.59
2026-06-18 12:43:13.787838,18.5
2026-06-18 12:43:13.795997,19.4
2026-06-18 12:43:13.803483,12.34
2026-06-18 12:43:13.811509,13.27
2026-06-18 12:43:13.818487,8.23
2026-06-18 12:43:13.826917,11.18
2026-06-18 12:43:13.834957,10.13
2026-06-18 12:43:13.841961,10.08
2026-06-18 12:43:13.845711,10.03
2026-06-18 12:43:13.856687,12.96
2026-06-18 12:43:13.862475,14.89
2026-06-18 12:43:13.872743,19.79
2026-06-18 12:43:13.879206,20.68
2026-06-18 12:43:13.888387,23.56
2026-06-18 12:43:13.897062,24.44
2026-06-18 12:43:13.902127,28.3
2026-06-18 12:43:13.912346,30.15
2026-06-18 12:43:13.918297,27.01
2026-06-18 12:43:13.928569,27.87
2026-06-18 12:43:13.929225,30.72
2026-06-18 12:43:13.942625,35.54
2026-06-18 12:43:13.950837,39.34
2026-06-18 12:43:13.958241,37.15
2026-06-18 12:43:13.962403,29.01
2026-06-18 12:43:13.973992,20.9
2026-06-18 12:43:13.979106,16.82
2026-06-18 12:43:13.990126,6.78
2026-06-18 12:43:13.998278,0.78
2026-06-18 12:43:14.005120,-4.2
2026-06-18 12:43:14.013966,-6.17
2026-06-18 12:43:14.019046,-10.12
2026-06-18 12:43:14.029073,-12.06
2026-06-18 12:43:14.029073,-12.99
2026-06-18 12:43:14.045705,-11.93
2026-06-18 12:43:14.047718,-9.88
2026-06-18 12:43:14.059846,-9.83
2026-06-18 12:43:14.065126,-14.76
2026-06-18 12:43:14.075472,-16.67
2026-06-18 12:43:14.080276,-17.59
2026-06-18 12:43:14.091691,-13.52
2026-06-18 12:43:14.100722,-11.46
2026-06-18 12:43:14.107663,-10.41
2026-06-18 12:43:14.112502,-7.37
2026-06-18 12:43:14.122776,-5.34
2026-06-18 12:43:14.129194,-3.33
2026-06-18 12:43:14.137895,-5.3
2026-06-18 12:43:14.147059,-3.28
2026-06-18 12:43:14.152081,-8.24
2026-06-18 12:43:14.162276,-6.21
2026-06-18 12:43:14.164299,-9.16
2026-06-18 12:43:14.178404,-8.12
2026-06-18 12:43:14.179049,-10.07
2026-06-18 12:43:14.192676,-6.04
2026-06-18 12:43:14.201718,-9.0
2026-06-18 12:43:14.210007,-6.96
2026-06-18 12:43:14.217023,-9.91
2026-06-18 12:43:14.223787,-11.85
2026-06-18 12:43:14.229051,-12.79
2026-06-18 12:43:14.239444,-12.73
2026-06-18 12:43:14.245743,-13.66
2026-06-18 12:43:14.255203,-15.58
2026-06-18 12:43:14.264626,-13.51
2026-06-18 12:43:14.268634,-14.44
2026-06-18 12:43:14.278926,-15.36
2026-06-18 12:43:14.286837,-17.27
2026-06-18 12:43:14.295804,-12.21
2026-06-18 12:43:14.295804,-9.17
2026-06-18 12:43:14.311438,-9.12
2026-06-18 12:43:14.318842,-8.08
2026-06-18 12:43:14.327203,-6.05
2026-06-18 12:43:14.334875,-7.01
2026-06-18 12:43:14.342186,-7.97
2026-06-18 12:43:14.350683,-13.9
2026-06-18 12:43:14.357738,-17.81
2026-06-18 12:43:14.362391,-15.74
2026-06-18 12:43:14.372307,-13.67
2026-06-18 12:43:14.379208,-10.61
2026-06-18 12:43:14.388629,-14.54
2026-06-18 12:43:14.395782,-17.45
2026-06-18 12:43:14.404496,-18.36
2026-06-18 12:43:14.412036,-9.31
2026-06-18 12:43:14.412036,-6.28
2026-06-18 12:43:14.428007,-6.25
2026-06-18 12:43:14.435012,-13.18
2026-06-18 12:43:14.442607,-10.13
2026-06-18 12:43:14.445516,-8.09
2026-06-18 12:43:14.458708,-4.07
2026-06-18 12:43:14.462200,-11.02
2026-06-18 12:43:14.473904,-15.94
2026-06-18 12:43:14.478949,-21.83
2026-06-18 12:43:14.490011,-17.74
2026-06-18 12:43:14.499129,-14.66
2026-06-18 12:43:14.502128,-7.63
2026-06-18 12:43:14.514357,-9.58
2026-06-18 12:43:14.520938,-12.52
2026-06-18 12:43:14.529600,-15.44
2026-06-18 12:43:14.538022,-12.38
2026-06-18 12:43:14.545731,-10.32
2026-06-18 12:43:14.545731,-9.28
2026-06-18 12:43:14.559699,-6.25
2026-06-18 12:43:14.562257,-9.2
2026-06-18 12:43:14.575305,-11.14
2026-06-18 12:43:14.578914,-7.11
2026-06-18 12:43:14.590919,-5.08
2026-06-18 12:43:14.600236,-4.06
2026-06-18 12:43:14.607167,-2.05
2026-06-18 12:43:14.612164,-2.04
2026-06-18 12:43:14.623068,-2.03
2026-06-18 12:43:14.631323,-2.02
2026-06-18 12:43:14.639610,-3.01
2026-06-18 12:43:14.647610,-7.97
2026-06-18 12:43:14.654604,-7.93
2026-06-18 12:43:14.662275,-6.89
2026-06-18 12:43:14.669332,-6.86
2026-06-18 12:43:14.678298,-7.82
2026-06-18 12:43:14.680913,-9.77
2026-06-18 12:43:14.692794,-9.72
2026-06-18 12:43:14.697494,-11.66
2026-06-18 12:43:14.708447,-10.61
2026-06-18 12:43:14.712216,-6.57
2026-06-18 12:43:14.723805,-0.57
2026-06-18 12:43:14.728874,12.37
2026-06-18 12:43:14.739659,21.26
2026-06-18 12:43:14.745479,15.18
2026-06-18 12:43:14.755520,-12.75
2026-06-18 12:43:14.764563,-32.59
2026-06-18 12:43:14.771557,-32.43
2026-06-18 12:43:14.778780,-11.37
2026-06-18 12:43:14.787137,1.62
2026-06-18 12:43:14.795481,3.6
2026-06-18 12:43:14.795481,-2.38
2026-06-18 12:43:14.811557,-1.38
2026-06-18 12:43:14.812086,-4.35
2026-06-18 12:43:14.825257,-0.35
2026-06-18 12:43:14.828821,-0.35
2026-06-18 12:43:14.840867,0.65
2026-06-18 12:43:14.849973,-3.34
2026-06-18 12:43:14.858384,-2.33
2026-06-18 12:43:14.866317,-1.32
2026-06-18 12:43:14.873381,-2.31
2026-06-18 12:43:14.878919,-2.3
2026-06-18 12:43:14.888484,-3.28
2026-06-18 12:43:14.896803,-3.26
2026-06-18 12:43:14.901858,0.73
2026-06-18 12:43:14.912229,3.71
2026-06-18 12:43:14.914240,5.69
2026-06-18 12:43:14.928939,6.65
2026-06-18 12:43:14.928939,6.62
2026-06-18 12:43:14.943196,2.61
2026-06-18 12:43:14.945418,9.56
2026-06-18 12:43:14.958147,22.45
2026-06-18 12:43:14.966965,32.28
2026-06-18 12:43:14.975058,30.13
2026-06-18 12:43:14.982064,27.0
2026-06-18 12:43:14.990077,29.85
2026-06-18 12:43:14.995610,30.69
2026-06-18 12:43:15.005060,27.55
2026-06-18 12:43:15.014593,17.47
2026-06-18 12:43:15.018667,11.41
2026-06-18 12:43:15.028876,6.38
2026-06-18 12:43:15.028876,1.37
2026-06-18 12:43:15.045614,-2.62
2026-06-18 12:43:15.045614,-4.59
2026-06-18 12:43:15.061621,-8.55
2026-06-18 12:43:15.062263,-18.46
2026-06-18 12:43:15.075441,-24.34
2026-06-18 12:43:15.084290,-20.23
2026-06-18 12:43:15.091888,-15.16
2026-06-18 12:43:15.095599,-13.09
2026-06-18 12:43:15.108010,-15.02
2026-06-18 12:43:15.115619,-16.93
2026-06-18 12:43:15.123153,-17.84
2026-06-18 12:43:15.128829,-16.76
2026-06-18 12:43:15.137831,-15.68
2026-06-18 12:43:15.147731,-12.62
2026-06-18 12:43:15.151783,-12.55
2026-06-18 12:43:15.161953,-9.51
2026-06-18 12:43:15.161953,-12.44
2026-06-18 12:43:15.178636,-13.38
2026-06-18 12:43:15.178636,-11.32
2026-06-18 12:43:15.193134,-6.29
2026-06-18 12:43:15.195396,-6.26
2026-06-18 12:43:15.208145,-10.2
2026-06-18 12:43:15.212008,-13.14
2026-06-18 12:43:15.223725,-13.07
2026-06-18 12:43:15.228681,-13.01
2026-06-18 12:43:15.240082,-15.93
2026-06-18 12:43:15.245329,-18.83
2026-06-18 12:43:15.254990,-21.72
2026-06-18 12:43:15.262131,-16.64
2026-06-18 12:43:15.270562,-13.57
2026-06-18 12:43:15.278949,-10.52
2026-06-18 12:43:15.288081,-12.46
2026-06-18 12:43:15.295086,-15.38
2026-06-18 12:43:15.295086,-16.3
2026-06-18 12:43:15.311532,-16.22
2026-06-18 12:43:15.312090,-11.16
2026-06-18 12:43:15.325343,-6.13
2026-06-18 12:43:15.328672,-5.1
2026-06-18 12:43:15.340916,-3.09
2026-06-18 12:43:15.350337,-2.08
2026-06-18 12:43:15.358348,-0.08
2026-06-18 12:43:15.365368,-1.07
2026-06-18 12:43:15.373646,-1.07
2026-06-18 12:43:15.381604,-1.06
2026-06-18 12:43:15.389706,-1.06
2026-06-18 12:43:15.396713,-3.04
2026-06-18 12:43:15.404697,-3.02
2026-06-18 12:43:15.413369,-3.01
2026-06-18 12:43:15.418421,-0.01
2026-06-18 12:43:15.428786,-1.0
2026-06-18 12:43:15.428786,-1.0
2026-06-18 12:43:15.442509,-5.97
2026-06-18 12:43:15.445169,-2.95
2026-06-18 12:43:15.458047,-1.95
2026-06-18 12:43:15.462027,3.04
2026-06-18 12:43:15.473726,1.03
2026-06-18 12:43:15.478756,-4.94
2026-06-18 12:43:15.489835,-6.91
2026-06-18 12:43:15.495379,-4.88
2026-06-18 12:43:15.504875,1.11
2026-06-18 12:43:15.512009,-0.88
2026-06-18 12:43:15.520626,-2.87
2026-06-18 12:43:15.530149,-6.83
2026-06-18 12:43:15.535377,-5.8
2026-06-18 12:43:15.545154,-2.79
2026-06-18 12:43:15.545154,-0.79
2026-06-18 12:43:15.561406,-3.77
2026-06-18 12:43:15.562089,-0.76
2026-06-18 12:43:15.575289,-2.75
2026-06-18 12:43:15.578787,-2.74
2026-06-18 12:43:15.591442,-4.71
2026-06-18 12:43:15.599735,-2.7
2026-06-18 12:43:15.607965,-2.69
2026-06-18 12:43:15.615969,-0.68
2026-06-18 12:43:15.624289,-1.67
2026-06-18 12:43:15.630160,-2.66
2026-06-18 12:43:15.638219,-3.64
2026-06-18 12:43:15.647362,2.35
2026-06-18 12:43:15.651382,5.32
2026-06-18 12:43:15.663292,1.31
2026-06-18 12:43:15.670978,-1.68
2026-06-18 12:43:15.677985,-4.66
2026-06-18 12:43:15.686156,-1.65
2026-06-18 12:43:15.693658,-0.64
2026-06-18 12:43:15.695246,-0.64
2026-06-18 12:43:15.708119,0.36
2026-06-18 12:43:15.711820,1.35
2026-06-18 12:43:15.723763,4.33
2026-06-18 12:43:15.728712,4.31
2026-06-18 12:43:15.739417,5.28
2026-06-18 12:43:15.745239,3.26
2026-06-18 12:43:15.754967,-3.72
2026-06-18 12:43:15.761876,-8.67
2026-06-18 12:43:15.770606,-9.62
2026-06-18 12:43:15.780163,-8.58
2026-06-18 12:43:15.785221,-4.56
2026-06-18 12:43:15.795152,2.43
2026-06-18 12:43:15.795152,2.42
2026-06-18 12:43:15.811358,0.41
2026-06-18 12:43:15.819287,-3.57
2026-06-18 12:43:15.827281,-5.54
2026-06-18 12:43:15.834421,-5.51
2026-06-18 12:43:15.842757,-2.5
2026-06-18 12:43:15.849797,1.49
2026-06-18 12:43:15.858197,2.48
2026-06-18 12:43:15.865485,3.46
2026-06-18 12:43:15.872555,6.43
2026-06-18 12:43:15.880727,-3.55
2026-06-18 12:43:15.889611,-22.44
2026-06-18 12:43:15.896934,-35.26
2026-06-18 12:43:15.901945,-30.11
2026-06-18 12:43:15.912215,-14.04
2026-06-18 12:43:15.920251,-3.02
2026-06-18 12:43:15.928470,-0.02
2026-06-18 12:43:15.937138,2.96
2026-06-18 12:43:15.944140,6.93
2026-06-18 12:43:15.952162,5.9
2026-06-18 12:43:15.959182,3.88
2026-06-18 12:43:15.967395,5.85
2026-06-18 12:43:15.973983,7.81
2026-06-18 12:43:15.981678,6.77
2026-06-18 12:43:15.989770,3.76
2026-06-18 12:43:15.998509,6.72
2026-06-18 12:43:16.006275,8.68
2026-06-18 12:43:16.011921,10.62
2026-06-18 12:43:16.011921,11.57
2026-06-18 12:43:16.028627,15.49
2026-06-18 12:43:16.035645,18.4
2026-06-18 12:43:16.045484,20.29
2026-06-18 12:43:16.053612,19.2
2026-06-18 12:43:16.061616,21.09
2026-06-18 12:43:16.068134,22.98
2026-06-18 12:43:16.075885,24.85
2026-06-18 12:43:16.078440,27.71
2026-06-18 12:43:16.092143,31.55
2026-06-18 12:43:16.095101,33.39
2026-06-18 12:43:16.106938,33.22
2026-06-18 12:43:16.111927,33.05
2026-06-18 12:43:16.122341,34.88
2026-06-18 12:43:16.130902,35.7
2026-06-18 12:43:16.138521,35.52
2026-06-18 12:43:16.147293,28.38
2026-06-18 12:43:16.153918,22.27
2026-06-18 12:43:16.161975,15.19
2026-06-18 12:43:16.170928,6.16
2026-06-18 12:43:16.178556,-2.83
2026-06-18 12:43:16.182601,-7.79
2026-06-18 12:43:16.193001,-11.73
2026-06-18 12:43:16.202215,-14.66
2026-06-18 12:43:16.208478,-16.57
2026-06-18 12:43:16.216378,-21.46
2026-06-18 12:43:16.223897,-19.37
2026-06-18 12:43:16.228562,-19.27
2026-06-18 12:43:16.239755,-21.16
2026-06-18 12:43:16.245130,-23.05
2026-06-18 12:43:16.255405,-20.94
2026-06-18 12:43:16.264652,-17.85
2026-06-18 12:43:16.271651,-14.78
2026-06-18 12:43:16.280086,-12.72
2026-06-18 12:43:16.286786,-10.66
2026-06-18 12:43:16.296162,-13.59
2026-06-18 12:43:16.299176,-11.54
2026-06-18 12:43:16.311866,-14.46
2026-06-18 12:43:16.313880,-14.39
2026-06-18 12:43:16.325974,-11.33
2026-06-18 12:43:16.334613,-9.29
2026-06-18 12:43:16.342611,-15.21
2026-06-18 12:43:16.350622,-18.12
2026-06-18 12:43:16.357967,-18.03
2026-06-18 12:43:16.365986,-18.93
2026-06-18 12:43:16.373488,-17.84
2026-06-18 12:43:16.381725,-16.76
2026-06-18 12:43:16.389724,-13.69
2026-06-18 12:43:16.395046,-14.62
2026-06-18 12:43:16.402825,-12.55
2026-06-18 12:43:16.411819,-17.47
2026-06-18 12:43:16.420761,-18.37
2026-06-18 12:43:16.428191,-17.29
2026-06-18 12:43:16.429032,-11.23
2026-06-18 12:43:16.442792,-7.19
2026-06-18 12:43:16.445050,-2.18
2026-06-18 12:43:16.458617,-2.17
2026-06-18 12:43:16.465984,-7.14
2026-06-18 12:43:16.474132,-12.08
2026-06-18 12:43:16.483060,-10.03
2026-06-18 12:43:16.490534,-6.99
2026-06-18 12:43:16.498544,-5.96
2026-06-18 12:43:16.505104,-4.94
2026-06-18 12:43:16.511969,-0.93
2026-06-18 12:43:16.520669,-4.91
2026-06-18 12:43:16.530061,-6.87
2026-06-18 12:43:16.535077,-5.84
2026-06-18 12:43:16.544971,-2.83
2026-06-18 12:43:16.548551,-2.81
2026-06-18 12:43:16.561134,-1.81
2026-06-18 12:43:16.561804,-4.78
2026-06-18 12:43:16.577073,-5.75
2026-06-18 12:43:16.585002,-2.74
2026-06-18 12:43:16.591696,-2.73
2026-06-18 12:43:16.600476,-5.7
2026-06-18 12:43:16.607476,-3.68
2026-06-18 12:43:16.611705,0.32
2026-06-18 12:43:16.623355,6.29
2026-06-18 12:43:16.628533,1.28
2026-06-18 12:43:16.637984,-2.7
2026-06-18 12:43:16.645563,1.29
2026-06-18 12:43:16.654509,1.28
2026-06-18 12:43:16.663131,-1.71
2026-06-18 12:43:16.666141,-2.69
2026-06-18 12:43:16.678434,2.29
2026-06-18 12:43:16.685242,3.28
2026-06-18 12:43:16.694358,2.27
2026-06-18 12:43:16.701374,3.25
2026-06-18 12:43:16.709581,8.21
2026-06-18 12:43:16.716577,10.16
2026-06-18 12:43:16.724152,5.13
2026-06-18 12:43:16.728253,2.12
2026-06-18 12:43:16.739388,4.1
2026-06-18 12:43:16.745034,5.07
2026-06-18 12:43:16.755055,4.05
2026-06-18 12:43:16.761597,5.03
2026-06-18 12:43:16.770847,7.99
2026-06-18 12:43:16.780137,7.95
2026-06-18 12:43:16.785701,7.91
2026-06-18 12:43:16.795092,6.87
2026-06-18 12:43:16.795092,6.84
2026-06-18 12:43:16.811602,6.81
2026-06-18 12:43:16.818506,3.79
2026-06-18 12:43:16.827086,3.77
2026-06-18 12:43:16.834277,5.74
2026-06-18 12:43:16.842258,6.71
2026-06-18 12:43:16.849841,6.67
2026-06-18 12:43:16.857918,6.64
2026-06-18 12:43:16.865779,8.6
2026-06-18 12:43:16.874236,10.54
2026-06-18 12:43:16.878497,13.47
2026-06-18 12:43:16.888363,13.41
2026-06-18 12:43:16.895106,10.36
2026-06-18 12:43:16.903931,7.32
2026-06-18 12:43:16.911757,6.29
2026-06-18 12:43:16.918670,9.24
2026-06-18 12:43:16.928194,10.19
2026-06-18 12:43:16.935212,12.13
2026-06-18 12:43:16.944337,13.06
2026-06-18 12:43:16.945159,13.99
2026-06-18 12:43:16.958421,16.91
2026-06-18 12:43:16.966460,14.83
2026-06-18 12:43:16.974493,12.77
2026-06-18 12:43:16.978259,14.69
2026-06-18 12:43:16.990605,17.61
2026-06-18 12:43:16.994890,20.5
2026-06-18 12:43:17.005021,32.34
2026-06-18 12:43:17.011628,40.14
2026-06-18 12:43:17.020660,27.0
2026-06-18 12:43:17.029836,-1.99
2026-06-18 12:43:17.034867,-23.87
2026-06-18 12:43:17.044961,-15.79
2026-06-18 12:43:17.044961,6.18
2026-06-18 12:43:17.061494,16.1
2026-06-18 12:43:17.069360,11.05
2026-06-18 12:43:17.073371,4.03
2026-06-18 12:43:17.084848,7.98
2026-06-18 12:43:17.090759,9.93
2026-06-18 12:43:17.099034,11.88
2026-06-18 12:43:17.099034,13.81
2026-06-18 12:43:17.114931,12.74
2026-06-18 12:43:17.114931,12.68
2026-06-18 12:43:17.130896,9.63
2026-06-18 12:43:17.139318,5.6
2026-06-18 12:43:17.146963,3.58
2026-06-18 12:43:17.154013,5.56
2026-06-18 12:43:17.162302,6.52
2026-06-18 12:43:17.169860,7.49
2026-06-18 12:43:17.178656,9.44
2026-06-18 12:43:17.179257,10.39
2026-06-18 12:43:17.194315,15.31
2026-06-18 12:43:17.196813,19.21
2026-06-18 12:43:17.208134,18.12
2026-06-18 12:43:17.211594,18.03
2026-06-18 12:43:17.223768,21.92
2026-06-18 12:43:17.228363,28.78
2026-06-18 12:43:17.239558,39.58
2026-06-18 12:43:17.245104,44.35
2026-06-18 12:43:17.255009,41.15
2026-06-18 12:43:17.261717,34.97
2026-06-18 12:43:17.270607,30.82
2026-06-18 12:43:17.279509,29.67
2026-06-18 12:43:17.284678,30.51
2026-06-18 12:43:17.294915,26.38
2026-06-18 12:43:17.294915,13.31
2026-06-18 12:43:17.311372,0.31
2026-06-18 12:43:17.311372,-7.65
2026-06-18 12:43:17.325161,-7.61
2026-06-18 12:43:17.328203,-6.58
2026-06-18 12:43:17.341151,-7.54
2026-06-18 12:43:17.350231,-10.49
2026-06-18 12:43:17.357245,-14.41
2026-06-18 12:43:17.365522,-16.33
2026-06-18 12:43:17.373805,-17.25
2026-06-18 12:43:17.381817,-14.17
2026-06-18 12:43:17.388841,-12.11
2026-06-18 12:43:17.397331,-14.04
2026-06-18 12:43:17.401343,-14.97
2026-06-18 12:43:17.411096,-13.9
2026-06-18 12:43:17.411096,-11.84
2026-06-18 12:43:17.427942,-11.78
2026-06-18 12:43:17.427942,-12.72
2026-06-18 12:43:17.444209,-12.65
2026-06-18 12:43:17.444779,-13.58
2026-06-18 12:43:17.458091,-9.54
2026-06-18 12:43:17.466843,-13.47
2026-06-18 12:43:17.475078,-20.37
2026-06-18 12:43:17.482091,-20.26
2026-06-18 12:43:17.489303,-16.18
2026-06-18 12:43:17.494676,-17.1
2026-06-18 12:43:17.505012,-20.0
2026-06-18 12:43:17.511483,-23.88
2026-06-18 12:43:17.520712,-28.73
2026-06-18 12:43:17.529523,-21.62
2026-06-18 12:43:17.534594,-20.52
2026-06-18 12:43:17.544600,-23.4
2026-06-18 12:43:17.544600,-27.27
2026-06-18 12:43:17.561282,-25.14
2026-06-18 12:43:17.568446,-27.0
2026-06-18 12:43:17.576460,-23.88
2026-06-18 12:43:17.584119,-21.77
2026-06-18 12:43:17.592125,-20.67
2026-06-18 12:43:17.600345,-21.56
2026-06-18 12:43:17.606597,-23.44
2026-06-18 12:43:17.615368,-22.33
2026-06-18 12:43:17.619362,-18.24
2026-06-18 12:43:17.630341,-15.16
2026-06-18 12:43:17.638930,-18.07
2026-06-18 12:43:17.646701,-22.96
2026-06-18 12:43:17.653351,-24.83
2026-06-18 12:43:17.663252,-20.73
2026-06-18 12:43:17.668305,-18.63
2026-06-18 12:43:17.677848,-17.55
2026-06-18 12:43:17.686337,-16.46
2026-06-18 12:43:17.694072,-13.4
2026-06-18 12:43:17.694880,-11.34
2026-06-18 12:43:17.708016,-9.29
2026-06-18 12:43:17.711370,-12.23
2026-06-18 12:43:17.723658,-15.16
2026-06-18 12:43:17.728139,-15.08
2026-06-18 12:43:17.739260,-15.0
2026-06-18 12:43:17.744720,-12.94
2026-06-18 12:43:17.754997,-11.88
2026-06-18 12:43:17.761370,-11.82
2026-06-18 12:43:17.770568,-13.75
2026-06-18 12:43:17.779923,-11.69
2026-06-18 12:43:17.784943,-14.62
2026-06-18 12:43:17.794705,-16.54
2026-06-18 12:43:17.794705,-16.45
2026-06-18 12:43:17.811126,-16.37
2026-06-18 12:43:17.811126,-18.28
2026-06-18 12:43:17.825287,-23.16
2026-06-18 12:43:17.828010,-24.04
2026-06-18 12:43:17.840911,-22.93
2026-06-18 12:43:17.844722,-18.83
2026-06-18 12:43:17.856505,-19.73
2026-06-18 12:43:17.861265,-24.61
2026-06-18 12:43:17.872033,-28.47
2026-06-18 12:43:17.881459,-29.32
2026-06-18 12:43:17.888462,-24.2
2026-06-18 12:43:17.897089,-18.11
2026-06-18 12:43:17.905198,-16.03
2026-06-18 12:43:17.912498,-16.94
2026-06-18 12:43:17.919494,-17.85
2026-06-18 12:43:17.927974,-14.78
2026-06-18 12:43:17.935917,-15.7
2026-06-18 12:43:17.944029,-17.61
2026-06-18 12:43:17.951618,-21.5
2026-06-18 12:43:17.959604,-23.38
2026-06-18 12:43:17.967088,-24.26
2026-06-18 12:43:17.975466,-20.16
2026-06-18 12:43:17.977959,-17.07
2026-06-18 12:43:17.989271,-15.0
2026-06-18 12:43:17.994935,-15.92
2026-06-18 12:43:18.004907,-14.84
2026-06-18 12:43:18.013819,-14.77
2026-06-18 12:43:18.022076,-14.7
2026-06-18 12:43:18.029094,-15.62
2026-06-18 12:43:18.036432,-15.54
2026-06-18 12:43:18.044927,-13.47
2026-06-18 12:43:18.051667,-7.43
2026-06-18 12:43:18.090090,5.54
2026-06-18 12:43:18.093116,16.45
2026-06-18 12:43:18.103192,11.4
2026-06-18 12:43:18.105205,-13.53
2026-06-18 12:43:18.105205,-37.35
2026-06-18 12:43:18.107222,-36.17
2026-06-18 12:43:18.107222,-17.08
2026-06-18 12:43:18.122013,-1.07
2026-06-18 12:43:18.124013,2.91
2026-06-18 12:43:18.131012,-2.08
2026-06-18 12:43:18.139038,-5.05
2026-06-18 12:43:18.146779,0.94
2026-06-18 12:43:18.151807,5.91
2026-06-18 12:43:18.162199,6.88
2026-06-18 12:43:18.169115,-0.12
2026-06-18 12:43:18.178299,-1.12
2026-06-18 12:43:18.178994,-4.09
2026-06-18 12:43:18.193971,-0.09
2026-06-18 12:43:18.200938,0.9
2026-06-18 12:43:18.209852,-2.09
2026-06-18 12:43:18.217053,-3.07
2026-06-18 12:43:18.225046,1.92
2026-06-18 12:43:18.233050,4.89
2026-06-18 12:43:18.241028,5.86
2026-06-18 12:43:18.249028,3.84
2026-06-18 12:43:18.249028,5.81
2026-06-18 12:43:18.262538,8.77
2026-06-18 12:43:18.262538,15.69
2026-06-18 12:43:18.279181,19.59
2026-06-18 12:43:18.287208,26.46
2026-06-18 12:43:18.295440,30.31
2026-06-18 12:43:18.295440,35.13
2026-06-18 12:43:18.311511,36.95
2026-06-18 12:43:18.312334,38.75
2026-06-18 12:43:18.325406,34.58
2026-06-18 12:43:18.328918,30.42
2026-06-18 12:43:18.340833,31.27
2026-06-18 12:43:18.349877,25.14
2026-06-18 12:43:18.357889,15.07
2026-06-18 12:43:18.365911,10.02
2026-06-18 12:43:18.372928,4.0
2026-06-18 12:43:18.381205,-3.98
2026-06-18 12:43:18.388914,-13.92
2026-06-18 12:43:18.395880,-17.83
2026-06-18 12:43:18.404511,-14.75
2026-06-18 12:43:18.412608,-8.71
2026-06-18 12:43:18.419063,-11.65
2026-06-18 12:43:18.428199,-16.57
2026-06-18 12:43:18.428863,-19.47
2026-06-18 12:43:18.443852,-14.4
2026-06-18 12:43:18.445637,-9.35
2026-06-18 12:43:18.458069,-9.3
2026-06-18 12:43:18.462372,-11.25
2026-06-18 12:43:18.473659,-13.18
2026-06-18 12:43:18.481846,-13.11
2026-06-18 12:43:18.489383,-14.04
2026-06-18 12:43:18.495685,-13.97
2026-06-18 12:43:18.504888,-14.9
2026-06-18 12:43:18.512266,-10.84
2026-06-18 12:43:18.520434,-12.78
2026-06-18 12:43:18.529523,-19.68
2026-06-18 12:43:18.534630,-27.54
2026-06-18 12:43:18.545416,-28.4
2026-06-18 12:43:18.552047,-30.25
2026-06-18 12:43:18.561439,-27.11
2026-06-18 12:43:18.562181,-30.96
2026-06-18 12:43:18.575284,-29.81
2026-06-18 12:43:18.578919,-27.67
2026-06-18 12:43:18.590807,-19.57
2026-06-18 12:43:18.595349,-15.49
2026-06-18 12:43:18.606762,-13.42
2026-06-18 12:43:18.612204,-12.36
2026-06-18 12:43:18.623610,-10.31
2026-06-18 12:43:18.631713,-5.28
2026-06-18 12:43:18.634730,-6.25
2026-06-18 12:43:18.645319,-8.21
2026-06-18 12:43:18.645319,-11.15
2026-06-18 12:43:18.662946,-7.12
2026-06-18 12:43:18.669934,-6.09
2026-06-18 12:43:18.678130,-4.07
2026-06-18 12:43:18.678957,-5.04
2026-06-18 12:43:18.693786,-7.01
2026-06-18 12:43:18.696075,-7.97
2026-06-18 12:43:18.708026,-10.91
2026-06-18 12:43:18.714699,-8.87
2026-06-18 12:43:18.723629,-3.85
2026-06-18 12:43:18.728913,1.15
2026-06-18 12:43:18.739241,-1.84
2026-06-18 12:43:18.748483,-4.82
2026-06-18 12:43:18.751481,-6.79
2026-06-18 12:43:18.763697,-3.77
2026-06-18 12:43:18.771984,-1.76
2026-06-18 12:43:18.778973,1.24
2026-06-18 12:43:18.778973,0.23
2026-06-18 12:43:18.795442,-2.75
2026-06-18 12:43:18.795951,-5.72
2026-06-18 12:43:18.811437,-10.67
2026-06-18 12:43:18.812166,-12.61
2026-06-18 12:43:18.827088,-15.53
2026-06-18 12:43:18.828894,-18.44
2026-06-18 12:43:18.840995,-20.33
2026-06-18 12:43:18.845496,-20.23
2026-06-18 12:43:18.856524,-19.14
2026-06-18 12:43:18.862248,-17.05
2026-06-18 12:43:18.872138,-17.96
2026-06-18 12:43:18.881213,-18.86
2026-06-18 12:43:18.888869,-15.79
2026-06-18 12:43:18.896575,-13.72
2026-06-18 12:43:18.901579,-11.66
2026-06-18 12:43:18.912129,-9.61
2026-06-18 12:43:18.912129,-8.57
2026-06-18 12:43:18.928142,-13.5
2026-06-18 12:43:18.929018,-13.43
2026-06-18 12:43:18.943736,-10.38
2026-06-18 12:43:18.945565,-7.34
2026-06-18 12:43:18.958037,-2.33
2026-06-18 12:43:18.962371,2.66
2026-06-18 12:43:18.973601,4.63
2026-06-18 12:43:18.983348,4.61
2026-06-18 12:43:18.990384,4.59
2026-06-18 12:43:18.998900,3.57
2026-06-18 12:43:19.005079,6.54
2026-06-18 12:43:19.012417,10.48
2026-06-18 12:43:19.020638,8.44
2026-06-18 12:43:19.029469,4.42
2026-06-18 12:43:19.035093,6.39
2026-06-18 12:43:19.045331,10.33
2026-06-18 12:43:19.045331,10.28
2026-06-18 12:43:19.061328,9.24
2026-06-18 12:43:19.061970,8.2
2026-06-18 12:43:19.077043,10.14
2026-06-18 12:43:19.078922,8.1
2026-06-18 12:43:19.090881,4.08
2026-06-18 12:43:19.100456,2.07
2026-06-18 12:43:19.107457,-1.92
2026-06-18 12:43:19.115299,-3.9
2026-06-18 12:43:19.119337,-4.87
2026-06-18 12:43:19.130488,-2.86
2026-06-18 12:43:19.130488,0.14
2026-06-18 12:43:19.145962,3.12
2026-06-18 12:43:19.145962,0.12
2026-06-18 12:43:19.162115,-3.86
2026-06-18 12:43:19.162115,-2.84
2026-06-18 12:43:19.178057,4.14
2026-06-18 12:43:19.184634,15.06
2026-06-18 12:43:19.193760,27.92
2026-06-18 12:43:19.198726,26.79
2026-06-18 12:43:19.208019,7.75
2026-06-18 12:43:19.212174,-17.17
2026-06-18 12:43:19.224310,-29.02
2026-06-18 12:43:19.232889,-20.92
2026-06-18 12:43:19.240015,-1.91
2026-06-18 12:43:19.245349,4.07
2026-06-18 12:43:19.255285,1.07
2026-06-18 12:43:19.261984,2.06
2026-06-18 12:43:19.270434,9.01
2026-06-18 12:43:19.280292,16.93
2026-06-18 12:43:19.284334,19.83
2026-06-18 12:43:19.295235,16.74
2026-06-18 12:43:19.302913,13.68
2026-06-18 12:43:19.310894,13.61
2026-06-18 12:43:19.311897,10.55
2026-06-18 12:43:19.327020,9.51
2026-06-18 12:43:19.328985,11.45
2026-06-18 12:43:19.341578,13.38
2026-06-18 12:43:19.345330,19.28
2026-06-18 12:43:19.356353,23.17
2026-06-18 12:43:19.361937,19.07
2026-06-18 12:43:19.372229,15.99
2026-06-18 12:43:19.381539,17.9
2026-06-18 12:43:19.384545,21.79
2026-06-18 12:43:19.397242,26.66
2026-06-18 12:43:19.405128,30.5
2026-06-18 12:43:19.413126,37.32
2026-06-18 12:43:19.420170,42.11
2026-06-18 12:43:19.428079,44.88
2026-06-18 12:43:19.429433,46.65
2026-06-18 12:43:19.443410,51.39
2026-06-18 12:43:19.445637,52.13
2026-06-18 12:43:19.458063,53.86
2026-06-18 12:43:19.462659,50.6
2026-06-18 12:43:19.473651,44.38
2026-06-18 12:43:19.478828,34.21
2026-06-18 12:43:19.490230,25.08
2026-06-18 12:43:19.497393,17.99
2026-06-18 12:43:19.504813,12.92
2026-06-18 12:43:19.512000,7.88
2026-06-18 12:43:19.520432,2.87
2026-06-18 12:43:19.529398,0.87
2026-06-18 12:43:19.534491,-2.12
2026-06-18 12:43:19.545148,-4.1
2026-06-18 12:43:19.545148,-10.05
2026-06-18 12:43:19.561379,-14.98
2026-06-18 12:43:19.568681,-16.89
2026-06-18 12:43:19.576890,-13.82
2026-06-18 12:43:19.580174,-7.78
2026-06-18 12:43:19.590729,-0.78
2026-06-18 12:43:19.597319,-4.76
2026-06-18 12:43:19.607031,-7.72
2026-06-18 12:43:19.615649,-9.67
2026-06-18 12:43:19.623653,-8.62
2026-06-18 12:43:19.630877,-2.61
2026-06-18 12:43:19.638886,1.38
2026-06-18 12:43:19.647352,-1.61
2026-06-18 12:43:19.651364,-1.6
2026-06-18 12:43:19.662196,-5.57
2026-06-18 12:43:19.669698,-11.52
2026-06-18 12:43:19.678025,-12.45
2026-06-18 12:43:19.685311,-11.4
2026-06-18 12:43:19.693551,-7.36
2026-06-18 12:43:19.697282,-6.33
2026-06-18 12:43:19.708388,-7.29
2026-06-18 12:43:19.711800,-12.23
2026-06-18 12:43:19.723848,-11.17
2026-06-18 12:43:19.732824,-6.14
2026-06-18 12:43:19.739606,0.85
2026-06-18 12:43:19.748962,3.83
2026-06-18 12:43:19.756774,5.8
2026-06-18 12:43:19.764452,6.77
2026-06-18 12:43:19.769463,5.74
2026-06-18 12:43:19.779089,11.68
2026-06-18 12:43:19.787738,13.61
2026-06-18 12:43:19.797331,14.54
2026-06-18 12:43:19.802103,11.48
2026-06-18 12:43:19.810885,7.45
2026-06-18 12:43:19.817745,7.41
2026-06-18 12:43:19.827020,8.37
2026-06-18 12:43:19.834030,6.34
2026-06-18 12:43:19.842046,2.32
2026-06-18 12:43:19.849393,2.31
2026-06-18 12:43:19.857914,8.27
2026-06-18 12:43:19.866142,6.24
2026-06-18 12:43:19.873142,5.21
2026-06-18 12:43:19.881604,5.19
2026-06-18 12:43:19.888643,11.13
2026-06-18 12:43:19.896617,15.06
2026-06-18 12:43:19.904903,15.97
2026-06-18 12:43:19.912948,10.92
2026-06-18 12:43:19.917956,11.86
2026-06-18 12:43:19.928029,15.78
2026-06-18 12:43:19.929033,20.68
2026-06-18 12:43:19.943429,20.57
2026-06-18 12:43:19.945270,19.48
2026-06-18 12:43:19.958042,17.39
2026-06-18 12:43:19.961878,17.3
2026-06-18 12:43:19.973725,16.22
2026-06-18 12:43:19.978769,17.13
2026-06-18 12:43:19.989244,18.04
2026-06-18 12:43:19.997945,19.94
2026-06-18 12:43:20.004935,18.85
2026-06-18 12:43:20.011843,15.77
2026-06-18 12:43:20.020513,14.7
2026-06-18 12:43:20.029724,15.62
2026-06-18 12:43:20.033752,11.56
2026-06-18 12:43:20.045022,9.51
2026-06-18 12:43:20.048397,7.47
2026-06-18 12:43:20.061174,9.43
2026-06-18 12:43:20.062176,11.37
2026-06-18 12:43:20.076844,10.32
2026-06-18 12:43:20.078706,9.27
2026-06-18 12:43:20.091036,4.25
2026-06-18 12:43:20.098108,2.24
2026-06-18 12:43:20.106474,0.24
2026-06-18 12:43:20.112052,5.21
2026-06-18 12:43:20.122322,11.15
2026-06-18 12:43:20.131180,15.08
2026-06-18 12:43:20.135177,13.01
2026-06-18 12:43:20.145316,15.93
2026-06-18 12:43:20.145316,16.85
2026-06-18 12:43:20.161830,18.75
2026-06-18 12:43:20.161830,15.68
2026-06-18 12:43:20.178553,16.59
2026-06-18 12:43:20.178553,21.48
2026-06-18 12:43:20.193360,27.35
2026-06-18 12:43:20.198267,27.21
2026-06-18 12:43:20.208006,20.11
2026-06-18 12:43:20.211689,16.03
2026-06-18 12:43:20.223833,15.95
2026-06-18 12:43:20.233048,16.86
2026-06-18 12:43:20.241066,12.8
2026-06-18 12:43:20.248070,7.76
2026-06-18 12:43:20.256827,5.73
2026-06-18 12:43:20.263594,9.68
2026-06-18 12:43:20.264578,11.62
2026-06-18 12:43:20.278707,14.55
2026-06-18 12:43:20.278707,6.52
2026-06-18 12:43:20.295256,4.5
2026-06-18 12:43:20.298502,12.43
2026-06-18 12:43:20.311014,24.31
2026-06-18 12:43:20.317622,41.1
2026-06-18 12:43:20.326654,45.87
2026-06-18 12:43:20.333017,28.73
2026-06-18 12:43:20.340792,-3.25
2026-06-18 12:43:20.350311,-26.12
2026-06-18 12:43:20.358312,-22.01
2026-06-18 12:43:20.365310,-3.99
2026-06-18 12:43:20.373310,8.96
2026-06-18 12:43:20.381588,9.91
2026-06-18 12:43:20.388637,7.87
2026-06-18 12:43:20.396650,12.81
2026-06-18 12:43:20.405173,14.74
2026-06-18 12:43:20.412506,13.67
2026-06-18 12:43:20.417532,13.6
2026-06-18 12:43:20.428554,14.53
2026-06-18 12:43:20.428554,15.45
2026-06-18 12:43:20.443320,9.4
2026-06-18 12:43:20.445331,6.37
2026-06-18 12:43:20.458124,4.35
2026-06-18 12:43:20.464421,4.32
2026-06-18 12:43:20.473681,3.31
2026-06-18 12:43:20.478694,4.29
2026-06-18 12:43:20.489308,8.25
2026-06-18 12:43:20.498598,12.18
2026-06-18 12:43:20.506678,12.12
2026-06-18 12:43:20.513671,13.06
2026-06-18 12:43:20.521719,13.99
2026-06-18 12:43:20.528523,21.88
2026-06-18 12:43:20.537741,27.74
2026-06-18 12:43:20.545250,33.57
2026-06-18 12:43:20.545250,36.39
2026-06-18 12:43:20.561020,43.17
2026-06-18 12:43:20.568943,47.93
2026-06-18 12:43:20.575758,51.67
2026-06-18 12:43:20.584100,49.42
2026-06-18 12:43:20.592100,45.19
2026-06-18 12:43:20.598837,34.02
2026-06-18 12:43:20.606507,24.9
2026-06-18 12:43:20.612037,12.83
2026-06-18 12:43:20.622913,0.83
2026-06-18 12:43:20.628619,-7.14
2026-06-18 12:43:20.638031,-11.08
2026-06-18 12:43:20.644830,-11.02
2026-06-18 12:43:20.654126,-11.96
2026-06-18 12:43:20.662283,-17.87
2026-06-18 12:43:20.669329,-21.77
2026-06-18 12:43:20.678659,-25.64
2026-06-18 12:43:20.678659,-24.51
2026-06-18 12:43:20.694190,-20.41
2026-06-18 12:43:20.701015,-21.3
2026-06-18 12:43:20.709872,-22.19
2026-06-18 12:43:20.711437,-19.1
2026-06-18 12:43:20.723750,-17.01
2026-06-18 12:43:20.728309,-11.95
2026-06-18 12:43:20.739179,-11.89
2026-06-18 12:43:20.744859,-12.83
2026-06-18 12:43:20.754874,-12.76
2026-06-18 12:43:20.763320,-13.69
2026-06-18 12:43:20.770887,-13.62
2026-06-18 12:43:20.780249,-11.57
2026-06-18 12:43:20.784236,-12.5
2026-06-18 12:43:20.794857,-11.45
2026-06-18 12:43:20.798997,-11.39
2026-06-18 12:43:20.810898,-18.3
2026-06-18 12:43:20.811609,-27.16
2026-06-18 12:43:20.826514,-30.01
2026-06-18 12:43:20.828397,-24.88
2026-06-18 12:43:20.840719,-19.79
2026-06-18 12:43:20.844861,-19.69
2026-06-18 12:43:20.856945,-22.57
2026-06-18 12:43:20.861679,-20.47
2026-06-18 12:43:20.871903,-18.38
2026-06-18 12:43:20.878146,-20.28
2026-06-18 12:43:20.887563,-22.16
2026-06-18 12:43:20.897221,-21.06
2026-06-18 12:43:20.904738,-16.97
2026-06-18 12:43:20.912953,-16.89
2026-06-18 12:43:20.919948,-18.79
2026-06-18 12:43:20.927605,-20.69
2026-06-18 12:43:20.935594,-19.59
2026-06-18 12:43:20.943597,-17.5
2026-06-18 12:43:20.951402,-18.41
2026-06-18 12:43:20.959827,-23.29
2026-06-18 12:43:20.961865,-26.16
2026-06-18 12:43:20.973744,-27.03
2026-06-18 12:43:20.982493,-26.89
2026-06-18 12:43:20.991239,-28.75
2026-06-18 12:43:20.998279,-31.59
2026-06-18 12:43:21.005924,-31.43
2026-06-18 12:43:21.013924,-27.29
2026-06-18 12:43:21.020471,-24.17
2026-06-18 12:43:21.030265,-28.03
2026-06-18 12:43:21.034314,-27.89
2026-06-18 12:43:21.044795,-28.75
2026-06-18 12:43:21.052400,-25.62
2026-06-18 12:43:21.060828,-20.51
2026-06-18 12:43:21.066263,-24.39
2026-06-18 12:43:21.076359,-28.25
2026-06-18 12:43:21.083617,-29.1
2026-06-18 12:43:21.090635,-27.96
2026-06-18 12:43:21.099588,-23.84
2026-06-18 12:43:21.106242,-19.74
2026-06-18 12:43:21.115782,-25.62
2026-06-18 12:43:21.122799,-26.48
2026-06-18 12:43:21.128429,-25.36
2026-06-18 12:43:21.138237,-24.23
2026-06-18 12:43:21.144744,-20.13
2026-06-18 12:43:21.153619,-17.05
2026-06-18 12:43:21.161790,-15.97
2026-06-18 12:43:21.167080,-18.87
2026-06-18 12:43:21.178147,-19.77
2026-06-18 12:43:21.178147,-17.68
2026-06-18 12:43:21.194018,-11.62
2026-06-18 12:43:21.199854,-17.54
2026-06-18 12:43:21.209761,-22.42
2026-06-18 12:43:21.216789,-20.32
2026-06-18 12:43:21.225042,-13.26
2026-06-18 12:43:21.232078,-13.19
2026-06-18 12:43:21.239369,-12.13
2026-06-18 12:43:21.244827,-15.05
2026-06-18 12:43:21.254922,-19.95
2026-06-18 12:43:21.261550,-16.87
2026-06-18 12:43:21.270915,-15.79
2026-06-18 12:43:21.279980,-14.71
2026-06-18 12:43:21.287587,-14.64
2026-06-18 12:43:21.295700,-9.59
2026-06-18 12:43:21.301372,-9.54
2026-06-18 12:43:21.310778,-11.49
2026-06-18 12:43:21.311633,-14.41
2026-06-18 12:43:21.326451,-15.34
2026-06-18 12:43:21.334515,-9.29
2026-06-18 12:43:21.342459,-7.25
2026-06-18 12:43:21.344659,-2.24
2026-06-18 12:43:21.356310,10.7
2026-06-18 12:43:21.361430,20.6
2026-06-18 12:43:21.372861,8.56
2026-06-18 12:43:21.381005,-20.34
2026-06-18 12:43:21.384990,-42.13
2026-06-18 12:43:21.395434,-39.93
2026-06-18 12:43:21.399890,-21.82
2026-06-18 12:43:21.412239,-3.8
2026-06-18 12:43:21.420676,0.2
2026-06-18 12:43:21.427696,0.2
2026-06-18 12:43:21.436163,2.19
2026-06-18 12:43:21.443159,4.17
2026-06-18 12:43:21.451228,5.14
2026-06-18 12:43:21.459690,5.11
2026-06-18 12:43:21.461239,6.08
2026-06-18 12:43:21.473637,7.05
2026-06-18 12:43:21.478211,7.01
2026-06-18 12:43:21.489994,3.99
2026-06-18 12:43:21.494686,-0.01
2026-06-18 12:43:21.505337,-2.0
2026-06-18 12:43:21.511371,1.99
2026-06-18 12:43:21.520451,3.97
2026-06-18 12:43:21.530287,6.94
2026-06-18 12:43:21.534335,9.89
2026-06-18 12:43:21.544854,9.84
2026-06-18 12:43:21.551614,10.79
2026-06-18 12:43:21.561218,12.72
2026-06-18 12:43:21.561218,15.64
2026-06-18 12:43:21.576352,21.53
2026-06-18 12:43:21.583895,27.4
2026-06-18 12:43:21.590742,33.23
2026-06-18 12:43:21.600220,35.05
2026-06-18 12:43:21.606357,36.87
2026-06-18 12:43:21.611590,38.67
2026-06-18 12:43:21.622015,40.47
2026-06-18 12:43:21.628342,38.28
2026-06-18 12:43:21.637572,29.13
2026-06-18 12:43:21.646986,17.05
2026-06-18 12:43:21.654013,8.01
2026-06-18 12:43:21.662261,0.01
2026-06-18 12:43:21.670260,-8.95
2026-06-18 12:43:21.678395,-11.89
2026-06-18 12:43:21.683123,-11.83
2026-06-18 12:43:21.693937,-13.76
2026-06-18 12:43:21.700601,-15.68
2026-06-18 12:43:21.709747,-19.58
2026-06-18 12:43:21.711760,-24.46
2026-06-18 12:43:21.723620,-26.33
2026-06-18 12:43:21.728056,-22.22
2026-06-18 12:43:21.739150,-19.12
2026-06-18 12:43:21.744975,-16.04
2026-06-18 12:43:21.754768,-14.96
2026-06-18 12:43:21.761325,-13.89
2026-06-18 12:43:21.806596,-10.84
2026-06-18 12:43:21.808357,-10.79
2026-06-18 12:43:21.809888,-11.73
2026-06-18 12:43:21.809888,-8.68
2026-06-18 12:43:21.810969,-8.64
2026-06-18 12:43:21.811967,-12.58
2026-06-18 12:43:21.820446,-17.49
2026-06-18 12:43:21.826276,-17.4
2026-06-18 12:43:21.838276,-13.33
2026-06-18 12:43:21.842274,-8.29
2026-06-18 12:43:21.850274,-11.24
2026-06-18 12:43:21.857301,-15.16
2026-06-18 12:43:21.861228,-14.09
2026-06-18 12:43:21.872014,-15.01
2026-06-18 12:43:21.877938,-18.92
2026-06-18 12:43:21.887718,-15.84
2026-06-18 12:43:21.897318,-12.78
2026-06-18 12:43:21.901837,-13.71
2026-06-18 12:43:21.911111,-17.62
2026-06-18 12:43:21.911111,-16.53
2026-06-18 12:43:21.927706,-17.45
2026-06-18 12:43:21.927706,-19.35
2026-06-18 12:43:21.943872,-19.25
2026-06-18 12:43:21.944873,-14.18
2026-06-18 12:43:21.959499,-13.12
2026-06-18 12:43:21.961279,-13.05
2026-06-18 12:43:21.973923,-18.96
2026-06-18 12:43:21.977883,-16.87
2026-06-18 12:43:21.989311,-14.8
2026-06-18 12:43:21.994688,-9.75
2026-06-18 12:43:22.004805,-11.69
2026-06-18 12:43:22.013801,-10.63
2026-06-18 12:43:22.017759,-9.59
2026-06-18 12:43:22.028078,-8.54
2026-06-18 12:43:22.028078,-6.51
2026-06-18 12:43:22.045114,-5.48
2026-06-18 12:43:22.045114,-8.44
2026-06-18 12:43:22.061702,-11.38
2026-06-18 12:43:22.061702,-7.35
2026-06-18 12:43:22.075961,-6.32
2026-06-18 12:43:22.082967,-6.28
2026-06-18 12:43:22.091203,-4.26
2026-06-18 12:43:22.100264,-2.25
2026-06-18 12:43:22.108131,-7.21
2026-06-18 12:43:22.115522,-8.17
2026-06-18 12:43:22.122305,-11.12
2026-06-18 12:43:22.131203,-18.03
2026-06-18 12:43:22.139205,-17.94
2026-06-18 12:43:22.147234,-18.84
2026-06-18 12:43:22.154232,-16.76
2026-06-18 12:43:22.162831,-10.7
2026-06-18 12:43:22.166936,-8.66
2026-06-18 12:43:22.177770,-6.63
2026-06-18 12:43:22.177770,-9.58
2026-06-18 12:43:22.193784,-10.53
2026-06-18 12:43:22.201866,-12.46
2026-06-18 12:43:22.209476,-10.41
2026-06-18 12:43:22.216869,-9.36
2026-06-18 12:43:22.216869,-10.31
2026-06-18 12:43:22.231416,-13.25
2026-06-18 12:43:22.231416,-8.2
2026-06-18 12:43:22.247276,-6.17
2026-06-18 12:43:22.247276,-5.15
2026-06-18 12:43:22.262683,-5.12
2026-06-18 12:43:22.262683,-6.09
2026-06-18 12:43:22.277988,-9.05
2026-06-18 12:43:22.286377,-10.0
2026-06-18 12:43:22.294837,-6.96
2026-06-18 12:43:22.301094,-6.93
2026-06-18 12:43:22.311251,-7.89
2026-06-18 12:43:22.317025,-7.85
2026-06-18 12:43:22.325871,-6.81
2026-06-18 12:43:22.330747,-5.78
2026-06-18 12:43:22.340670,-4.76
2026-06-18 12:43:22.349533,-6.73
2026-06-18 12:43:22.357540,-7.69
2026-06-18 12:43:22.365813,-5.66
2026-06-18 12:43:22.373103,-4.64
2026-06-18 12:43:22.378499,-6.6
2026-06-18 12:43:22.387673,-7.56
2026-06-18 12:43:22.396421,-3.55
2026-06-18 12:43:22.401486,-0.54
2026-06-18 12:43:22.411234,0.45
2026-06-18 12:43:22.411234,-4.52
2026-06-18 12:43:22.427794,-6.49
2026-06-18 12:43:22.428650,-8.45
2026-06-18 12:43:22.443744,-6.42
2026-06-18 12:43:22.444533,-9.37
2026-06-18 12:43:22.459318,-6.34
2026-06-18 12:43:22.461331,-5.31
2026-06-18 12:43:22.473786,-7.27
2026-06-18 12:43:22.481793,-12.21
2026-06-18 12:43:22.489407,-11.16
2026-06-18 12:43:22.495059,-8.12
2026-06-18 12:43:22.505189,-8.08
2026-06-18 12:43:22.514117,-9.03
2026-06-18 12:43:22.521537,-5.0
2026-06-18 12:43:22.529537,9.95
2026-06-18 12:43:22.537512,28.8
2026-06-18 12:43:22.545479,29.65
2026-06-18 12:43:22.550508,9.6
2026-06-18 12:43:22.561290,-21.29
2026-06-18 12:43:22.568607,-35.11
2026-06-18 12:43:22.576619,-25.98
2026-06-18 12:43:22.584124,-7.94
2026-06-18 12:43:22.592864,5.03
2026-06-18 12:43:22.595224,3.02
2026-06-18 12:43:22.606655,-3.96
2026-06-18 12:43:22.612094,-1.95
2026-06-18 12:43:22.622258,3.03
2026-06-18 12:43:22.631737,7.99
2026-06-18 12:43:22.638516,7.95
2026-06-18 12:43:22.646714,4.93
2026-06-18 12:43:22.650706,0.92
2026-06-18 12:43:22.661041,-0.08
2026-06-18 12:43:22.661041,-1.07
2026-06-18 12:43:22.677845,0.92
2026-06-18 12:43:22.684771,5.89
2026-06-18 12:43:22.693664,5.86
2026-06-18 12:43:22.701790,4.84
2026-06-18 12:43:22.709272,2.83
2026-06-18 12:43:22.713712,-0.17
2026-06-18 12:43:22.723500,5.8
2026-06-18 12:43:22.727688,8.75
2026-06-18 12:43:22.739137,11.69
2026-06-18 12:43:22.744611,14.62
2026-06-18 12:43:22.754938,21.51
2026-06-18 12:43:22.761178,26.38
2026-06-18 12:43:22.770566,31.22
2026-06-18 12:43:22.779246,33.06
2026-06-18 12:43:22.788051,33.89
2026-06-18 12:43:22.795190,36.7
2026-06-18 12:43:22.802813,37.51
2026-06-18 12:43:22.810814,35.34
2026-06-18 12:43:22.811558,29.19
2026-06-18 12:43:22.827067,21.08
2026-06-18 12:43:22.831925,13.02
2026-06-18 12:43:22.842125,3.0
2026-06-18 12:43:22.849009,-6.96
2026-06-18 12:43:22.857047,-13.89
2026-06-18 12:43:22.861183,-17.8
2026-06-18 12:43:22.872543,-17.71
2026-06-18 12:43:22.877855,-18.62
2026-06-18 12:43:22.887708,-17.53
2026-06-18 12:43:22.896626,-16.45
2026-06-18 12:43:22.905161,-14.38
2026-06-18 12:43:22.913192,-15.3
2026-06-18 12:43:22.920704,-15.22
2026-06-18 12:43:22.928063,-19.13
2026-06-18 12:43:22.936055,-18.04
2026-06-18 12:43:22.943643,-15.96
2026-06-18 12:43:22.950671,-8.91
2026-06-18 12:43:22.959192,-7.87
2026-06-18 12:43:22.961601,-7.83
2026-06-18 12:43:22.974011,-9.78
2026-06-18 12:43:22.977861,-6.75
2026-06-18 12:43:22.989279,-5.72
2026-06-18 12:43:22.998888,-7.68
2026-06-18 12:43:23.006441,-10.63
2026-06-18 12:43:23.014441,-11.57
2026-06-18 12:43:23.020918,-12.51
2026-06-18 12:43:23.030076,-10.46
2026-06-18 12:43:23.034077,-9.41
2026-06-18 12:43:23.044396,-9.36
2026-06-18 12:43:23.044396,-12.3
2026-06-18 12:43:23.060516,-18.21
2026-06-18 12:43:23.061484,-17.12
2026-06-18 12:43:23.075987,-9.08
2026-06-18 12:43:23.077997,-4.06
2026-06-18 12:43:23.092509,-3.04
2026-06-18 12:43:23.094380,-6.01
2026-06-18 12:43:23.106350,-3.0
2026-06-18 12:43:23.115384,1.99
2026-06-18 12:43:23.122900,6.96
2026-06-18 12:43:23.128171,6.92
2026-06-18 12:43:23.138136,9.88
2026-06-18 12:43:23.144376,10.82
2026-06-18 12:43:23.153384,12.76
2026-06-18 12:43:23.161203,12.69
2026-06-18 12:43:23.168308,12.63
2026-06-18 12:43:23.177836,14.56
2026-06-18 12:43:23.177836,17.47
2026-06-18 12:43:23.193535,18.38
2026-06-18 12:43:23.194849,20.27
2026-06-18 12:43:23.209305,20.17
2026-06-18 12:43:23.212018,21.07
2026-06-18 12:43:23.223817,24.94
2026-06-18 12:43:23.227744,25.81
2026-06-18 12:43:23.239407,26.68
2026-06-18 12:43:23.244405,27.54
2026-06-18 12:43:23.254810,24.42
2026-06-18 12:43:23.260920,21.31
2026-06-18 12:43:23.270510,18.22
2026-06-18 12:43:23.279730,18.13
2026-06-18 12:43:23.283696,16.05
2026-06-18 12:43:23.294928,12.98
2026-06-18 12:43:23.302713,11.92
2026-06-18 12:43:23.310895,12.86
2026-06-18 12:43:23.310895,10.8
2026-06-18 12:43:23.326630,10.75
2026-06-18 12:43:23.334167,5.72
2026-06-18 12:43:23.342559,8.68
2026-06-18 12:43:23.344558,11.62
2026-06-18 12:43:23.357511,14.54
2026-06-18 12:43:23.364739,11.49
2026-06-18 12:43:23.372352,9.44
2026-06-18 12:43:23.381581,9.39
2026-06-18 12:43:23.388184,17.31
2026-06-18 12:43:23.396877,19.21
2026-06-18 12:43:23.402988,20.11
2026-06-18 12:43:23.413027,15.03
2026-06-18 12:43:23.420021,11.97
2026-06-18 12:43:23.428027,16.89
2026-06-18 12:43:23.436210,17.8
2026-06-18 12:43:23.443208,20.69
2026-06-18 12:43:23.451204,22.58
2026-06-18 12:43:23.459145,21.47
2026-06-18 12:43:23.461158,27.34
2026-06-18 12:43:23.473738,25.21
2026-06-18 12:43:23.477559,23.09
2026-06-18 12:43:23.489628,19.99
2026-06-18 12:43:23.494412,15.91
2026-06-18 12:43:23.505357,16.83
2026-06-18 12:43:23.513724,18.73
2026-06-18 12:43:23.520564,19.63
2026-06-18 12:43:23.530163,19.54
2026-06-18 12:43:23.533729,20.43
2026-06-18 12:43:23.545576,23.32
2026-06-18 12:43:23.552561,22.21
2026-06-18 12:43:23.561128,21.1
2026-06-18 12:43:23.569041,19.0
2026-06-18 12:43:23.576780,18.91
2026-06-18 12:43:23.578094,19.81
2026-06-18 12:43:23.592583,20.7
2026-06-18 12:43:23.594498,20.6
2026-06-18 12:43:23.606764,17.51
2026-06-18 12:43:23.610869,17.43
2026-06-18 12:43:23.622339,18.33
2026-06-18 12:43:23.627870,19.24
2026-06-18 12:43:23.637535,19.14
2026-06-18 12:43:23.647393,18.05
2026-06-18 12:43:23.654393,19.95
2026-06-18 12:43:23.662634,24.83
2026-06-18 12:43:23.670620,27.69
2026-06-18 12:43:23.677778,28.54
2026-06-18 12:43:23.682838,27.4
2026-06-18 12:43:23.693491,24.28
2026-06-18 12:43:23.701746,20.18
2026-06-18 12:43:23.709148,18.09
2026-06-18 12:43:23.717449,16.01
2026-06-18 12:43:23.723811,15.93
2026-06-18 12:43:23.728190,15.85
2026-06-18 12:43:23.739709,16.77
2026-06-18 12:43:23.744053,23.65
2026-06-18 12:43:23.755421,22.53
2026-06-18 12:43:23.761006,18.44
2026-06-18 12:43:23.770260,12.38
2026-06-18 12:43:23.779665,19.28
2026-06-18 12:43:23.783640,34.11
2026-06-18 12:43:23.794804,49.86
2026-06-18 12:43:23.803440,50.61
2026-06-18 12:43:23.810938,26.47
2026-06-18 12:43:23.810938,-7.49
2026-06-18 12:43:23.826670,-21.38
2026-06-18 12:43:23.834669,-11.33
2026-06-18 12:43:23.842672,11.62
2026-06-18 12:43:23.849685,23.5
2026-06-18 12:43:23.857703,23.38
2026-06-18 12:43:23.865706,21.27
2026-06-18 12:43:23.874328,20.17
2026-06-18 12:43:23.881115,17.09
2026-06-18 12:43:23.888373,11.03
2026-06-18 12:43:23.894298,7.99
2026-06-18 12:43:23.903769,10.94
2026-06-18 12:43:23.911907,10.88
2026-06-18 12:43:23.917231,6.85
2026-06-18 12:43:23.927619,2.83
2026-06-18 12:43:23.927619,3.81
2026-06-18 12:43:23.944279,9.76
2026-06-18 12:43:23.951120,11.71
2026-06-18 12:43:23.959967,10.65
2026-06-18 12:43:23.966907,8.61
2026-06-18 12:43:23.975076,13.54
2026-06-18 12:43:23.982499,21.43
2026-06-18 12:43:23.995515,27.3
2026-06-18 12:43:23.998515,28.15
2026-06-18 12:43:24.013455,30.0
2026-06-18 12:43:24.015459,34.83
2026-06-18 12:43:24.031731,42.61
2026-06-18 12:43:24.033724,47.38
2026-06-18 12:43:24.036819,50.12
2026-06-18 12:43:24.047606,50.87
2026-06-18 12:43:24.053788,51.61
2026-06-18 12:43:24.065490,48.37
2026-06-18 12:43:24.069512,39.17
2026-06-18 12:43:24.081191,26.04
2026-06-18 12:43:24.083270,12.97
2026-06-18 12:43:24.096931,4.95
2026-06-18 12:43:24.100924,-1.05
2026-06-18 12:43:24.108450,-10.99
2026-06-18 12:43:24.116219,-19.89
2026-06-18 12:43:24.123339,-27.75
2026-06-18 12:43:24.132887,-29.6
2026-06-18 12:43:24.139274,-24.48
2026-06-18 12:43:24.146840,-23.36
2026-06-18 12:43:24.154093,-22.25
2026-06-18 12:43:24.165734,-23.13
2026-06-18 12:43:24.172337,-27.0
2026-06-18 12:43:24.180889,-26.86
2026-06-18 12:43:24.186933,-24.74
2026-06-18 12:43:24.197673,-20.64
2026-06-18 12:43:24.204054,-15.56
2026-06-18 12:43:24.213200,-12.49
2026-06-18 12:43:24.218057,-11.44
2026-06-18 12:43:24.232231,-12.37
2026-06-18 12:43:24.235230,-16.29
2026-06-18 12:43:24.241420,-17.21
2026-06-18 12:43:24.250314,-19.11
2026-06-18 12:43:24.255551,-20.01
2026-06-18 12:43:24.263779,-22.89
2026-06-18 12:43:24.271954,-26.76
2026-06-18 12:43:24.282490,-24.64
2026-06-18 12:43:24.288544,-22.52
2026-06-18 12:43:24.297324,-21.42
2026-06-18 12:43:24.301836,-25.29
2026-06-18 12:43:24.313492,-28.15
2026-06-18 12:43:24.319649,-29.0
2026-06-18 12:43:24.328904,-25.87
2026-06-18 12:43:24.333541,-26.74
2026-06-18 12:43:24.345426,-26.6
2026-06-18 12:43:24.350367,-24.48
2026-06-18 12:43:24.358836,-20.38
2026-06-18 12:43:24.364532,-20.28
2026-06-18 12:43:24.376578,-18.18
2026-06-18 12:43:24.381874,-18.09
2026-06-18 12:43:24.389821,-19.0
2026-06-18 12:43:24.396101,-20.89
2026-06-18 12:43:24.405883,-23.77
2026-06-18 12:43:24.412421,-23.65
2026-06-18 12:43:24.420208,-20.55
2026-06-18 12:43:24.428205,-21.44
2026-06-18 12:43:24.436431,-23.33
2026-06-18 12:43:24.444212,-22.21
2026-06-18 12:43:24.451060,-24.09
2026-06-18 12:43:24.458965,-23.97
2026-06-18 12:43:24.467178,-28.83
2026-06-18 12:43:24.475391,-29.68
2026-06-18 12:43:24.482017,-33.51
2026-06-18 12:43:24.490020,-33.34
2026-06-18 12:43:24.498749,-33.18
2026-06-18 12:43:24.506200,-26.05
2026-06-18 12:43:24.513445,-24.92
2026-06-18 12:43:24.520996,-28.78
2026-06-18 12:43:24.527709,-30.62
2026-06-18 12:43:24.536961,-27.48
2026-06-18 12:43:24.545775,-21.38
2026-06-18 12:43:24.549782,-22.26
2026-06-18 12:43:24.560820,-26.13
2026-06-18 12:43:24.569055,-24.01
2026-06-18 12:43:24.576039,-20.91
2026-06-18 12:43:24.577557,-21.8
2026-06-18 12:43:24.592039,-22.68
2026-06-18 12:43:24.594050,-24.56
2026-06-18 12:43:24.606986,-25.43
2026-06-18 12:43:24.610802,-22.32
2026-06-18 12:43:24.622599,-23.2
2026-06-18 12:43:24.627438,-22.09
2026-06-18 12:43:24.637719,-19.99
2026-06-18 12:43:24.643942,-15.91
2026-06-18 12:43:24.653358,-13.84
2026-06-18 12:43:24.662770,-9.79
2026-06-18 12:43:24.669752,-9.74
2026-06-18 12:43:24.678024,-12.68
2026-06-18 12:43:24.686015,-12.62
2026-06-18 12:43:24.694097,-12.55
2026-06-18 12:43:24.699691,-12.49
2026-06-18 12:43:24.708818,-15.41
2026-06-18 12:43:24.710712,-16.33
2026-06-18 12:43:24.725371,-15.26
2026-06-18 12:43:24.727711,-11.2
2026-06-18 12:43:24.739157,-10.15
2026-06-18 12:43:24.743776,-10.1
2026-06-18 12:43:24.754936,-13.03
2026-06-18 12:43:24.764228,-14.96
2026-06-18 12:43:24.770530,-14.88
2026-06-18 12:43:24.777379,-17.79
2026-06-18 12:43:24.785992,-16.71
2026-06-18 12:43:24.795016,-17.62
2026-06-18 12:43:24.802544,-12.56
2026-06-18 12:43:24.810572,-14.48
2026-06-18 12:43:24.818367,-13.42
2026-06-18 12:43:24.826477,-14.34
2026-06-18 12:43:24.834560,-12.28
2026-06-18 12:43:24.842002,-12.22
2026-06-18 12:43:24.843778,-8.18
2026-06-18 12:43:24.856308,-6.15
2026-06-18 12:43:24.860532,3.83
2026-06-18 12:43:24.871963,19.73
2026-06-18 12:43:24.881313,30.58
2026-06-18 12:43:24.888314,25.45
2026-06-18 12:43:24.896962,-0.55
2026-06-18 12:43:24.904457,-32.38
2026-06-18 12:43:24.912869,-44.16
2026-06-18 12:43:24.918996,-30.01
2026-06-18 12:43:24.927741,-3.99
2026-06-18 12:43:24.933921,6.97
2026-06-18 12:43:24.943814,6.94
2026-06-18 12:43:24.951634,5.91
2026-06-18 12:43:24.959643,7.87
2026-06-18 12:43:24.963771,9.82
2026-06-18 12:43:24.975315,7.78
2026-06-18 12:43:24.983065,5.75
2026-06-18 12:43:24.990851,4.73
2026-06-18 12:43:24.998488,6.69
2026-06-18 12:43:25.005499,8.65
2026-06-18 12:43:25.013516,9.6
2026-06-18 12:43:25.021252,9.55
2026-06-18 12:43:25.029267,10.5
2026-06-18 12:43:25.036738,8.46
2026-06-18 12:43:25.043706,7.42
2026-06-18 12:43:25.051364,13.36
2026-06-18 12:43:25.061361,18.26
2026-06-18 12:43:25.068902,21.16
2026-06-18 12:43:25.076911,27.02
2026-06-18 12:43:25.084341,29.87
2026-06-18 12:43:25.092241,30.72
2026-06-18 12:43:25.099965,31.56
2026-06-18 12:43:25.108134,36.38
2026-06-18 12:43:25.115345,42.16
2026-06-18 12:43:25.123328,46.93
2026-06-18 12:43:25.127255,52.66
2026-06-18 12:43:25.137501,50.41
2026-06-18 12:43:25.143791,49.16
2026-06-18 12:43:25.153976,40.96
2026-06-18 12:43:25.162335,31.8
2026-06-18 12:43:25.168510,18.7
2026-06-18 12:43:25.177376,8.66
2026-06-18 12:43:25.177376,1.65
2026-06-18 12:43:25.193741,-1.34
2026-06-18 12:43:25.193741,-4.32
2026-06-18 12:43:25.209578,-7.28
2026-06-18 12:43:25.216961,-13.22
2026-06-18 12:43:25.225238,-16.14
2026-06-18 12:43:25.227143,-17.05
2026-06-18 12:43:25.239040,-14.98
2026-06-18 12:43:25.243797,-12.91
2026-06-18 12:43:25.255704,-13.84
2026-06-18 12:43:25.263700,-14.77
2026-06-18 12:43:25.270364,-17.68
2026-06-18 12:43:25.279328,-18.58
2026-06-18 12:43:25.283323,-12.52
2026-06-18 12:43:25.293594,-10.47
2026-06-18 12:43:25.293594,-13.4
2026-06-18 12:43:25.310337,-15.32
2026-06-18 12:43:25.318527,-12.26
2026-06-18 12:43:25.326509,-4.24
2026-06-18 12:43:25.327317,-6.21
2026-06-18 12:43:25.341912,-8.17
2026-06-18 12:43:25.343632,-11.11
2026-06-18 12:43:25.356364,-11.06
2026-06-18 12:43:25.360503,-14.98
2026-06-18 12:43:25.372949,-18.89
2026-06-18 12:43:25.376908,-20.78
2026-06-18 12:43:25.387502,-20.68
2026-06-18 12:43:25.396995,-21.57
2026-06-18 12:43:25.399994,-20.47
2026-06-18 12:43:25.411168,-22.36
2026-06-18 12:43:25.415746,-21.25
2026-06-18 12:43:25.427802,-20.15
2026-06-18 12:43:25.429925,-15.07
2026-06-18 12:43:25.443243,-11.02
2026-06-18 12:43:25.451256,-6.98
2026-06-18 12:43:25.459238,-10.93
2026-06-18 12:43:25.466730,-12.86
2026-06-18 12:43:25.474922,-13.79
2026-06-18 12:43:25.481966,-9.74
2026-06-18 12:43:25.489349,-0.74
2026-06-18 12:43:25.494295,-0.74
2026-06-18 12:43:25.505101,-5.71
2026-06-18 12:43:25.510496,-8.66
2026-06-18 12:43:25.520318,-7.63
2026-06-18 12:43:25.529920,-5.6
2026-06-18 12:43:25.532938,-5.57
2026-06-18 12:43:25.544557,-8.53
2026-06-18 12:43:25.544557,-9.48
2026-06-18 12:43:25.560174,-5.45
2026-06-18 12:43:25.560174,-3.43
2026-06-18 12:43:25.576159,-4.41
2026-06-18 12:43:25.577133,-4.39
2026-06-18 12:43:25.591800,-5.36
2026-06-18 12:43:25.593591,-6.33
2026-06-18 12:43:25.606818,-6.3
2026-06-18 12:43:25.610171,-3.28
2026-06-18 12:43:25.621964,-1.28
2026-06-18 12:43:25.626907,-1.27
2026-06-18 12:43:25.637469,-5.24
2026-06-18 12:43:25.646816,-6.21
2026-06-18 12:43:25.654800,-3.2
2026-06-18 12:43:25.662342,-1.19
2026-06-18 12:43:25.666323,-2.18
2026-06-18 12:43:25.676965,-3.16
2026-06-18 12:43:25.676965,-4.14
2026-06-18 12:43:25.693482,-1.14
2026-06-18 12:43:25.693482,-1.13
2026-06-18 12:43:25.709401,-5.11
2026-06-18 12:43:25.710404,-7.07
2026-06-18 12:43:25.725238,-2.06
2026-06-18 12:43:25.727257,-2.05
2026-06-18 12:43:25.739004,-4.03
2026-06-18 12:43:25.748172,-2.02
2026-06-18 12:43:25.756247,-2.01
2026-06-18 12:43:25.764170,-2.99
2026-06-18 12:43:25.770239,-1.98
2026-06-18 12:43:25.779643,-3.96
2026-06-18 12:43:25.783167,-5.93
2026-06-18 12:43:25.794005,-0.93
2026-06-18 12:43:25.794005,2.06
2026-06-18 12:43:25.810028,0.06
2026-06-18 12:43:25.810028,-1.93
2026-06-18 12:43:25.826306,1.06
2026-06-18 12:43:25.827618,5.04
2026-06-18 12:43:25.841744,4.02
2026-06-18 12:43:25.843472,-1.97
2026-06-18 12:43:25.857101,-1.96
2026-06-18 12:43:25.865350,1.03
2026-06-18 12:43:25.873041,1.03
2026-06-18 12:43:25.880861,-2.96
2026-06-18 12:43:25.886731,-3.94
2026-06-18 12:43:25.895893,-1.93
2026-06-18 12:43:25.932216,2.06
2026-06-18 12:43:25.934231,1.06
2026-06-18 12:43:25.934231,-2.93
2026-06-18 12:43:25.947817,-1.92
2026-06-18 12:43:25.949512,0.08
2026-06-18 12:43:25.950100,-0.92
2026-06-18 12:43:25.951517,-2.9
2026-06-18 12:43:25.967932,-2.89
2026-06-18 12:43:25.968576,-2.87
2026-06-18 12:43:25.975050,-2.86
2026-06-18 12:43:25.982615,-6.82
2026-06-18 12:43:25.986024,-11.76
2026-06-18 12:43:25.998529,-15.69
2026-06-18 12:43:26.005348,-13.62
2026-06-18 12:43:26.012006,-13.55
2026-06-18 12:43:26.012006,-13.48
2026-06-18 12:43:26.028537,-13.41
2026-06-18 12:43:26.028537,-14.34
2026-06-18 12:43:26.043862,-10.29
2026-06-18 12:43:26.043862,-11.23
2026-06-18 12:43:26.060047,-12.17
2026-06-18 12:43:26.060047,-14.1
2026-06-18 12:43:26.075947,-7.07
2026-06-18 12:43:26.083992,8.89
2026-06-18 12:43:26.091950,22.78
2026-06-18 12:43:26.093733,17.69
2026-06-18 12:43:26.107300,-10.26
2026-06-18 12:43:26.110205,-43.05
2026-06-18 12:43:26.121966,-46.81
2026-06-18 12:43:26.126777,-27.67
2026-06-18 12:43:26.137645,-7.63
2026-06-18 12:43:26.143317,-3.61
2026-06-18 12:43:26.153236,-4.59
2026-06-18 12:43:26.160157,-1.58
2026-06-18 12:43:26.168844,0.41
2026-06-18 12:43:26.178078,2.4
2026-06-18 12:43:26.185140,4.38
2026-06-18 12:43:26.194090,1.37
2026-06-18 12:43:26.201127,1.37
2026-06-18 12:43:26.209425,0.36
2026-06-18 12:43:26.210299,-3.62
2026-06-18 12:43:26.224999,-3.6
2026-06-18 12:43:26.227012,-2.59
2026-06-18 12:43:26.239033,-1.58
2026-06-18 12:43:26.243245,-0.58
2026-06-18 12:43:26.254797,2.41
2026-06-18 12:43:26.259984,5.39
2026-06-18 12:43:26.270187,5.36
2026-06-18 12:43:26.276603,6.33
2026-06-18 12:43:26.285799,7.29
2026-06-18 12:43:26.295099,10.24
2026-06-18 12:43:26.299068,16.16
2026-06-18 12:43:26.309831,23.04
2026-06-18 12:43:26.309831,32.88
2026-06-18 12:43:26.326616,39.68
2026-06-18 12:43:26.326616,42.46
2026-06-18 12:43:26.341555,40.26
2026-06-18 12:43:26.343523,42.05
2026-06-18 12:43:26.356282,42.83
2026-06-18 12:43:26.359943,36.65
2026-06-18 12:43:26.372366,27.51
2026-06-18 12:43:26.376594,14.44
2026-06-18 12:43:26.387327,1.43
2026-06-18 12:43:26.396122,-8.52
2026-06-18 12:43:26.404126,-13.46
2026-06-18 12:43:26.411904,-18.36
2026-06-18 12:43:26.419913,-21.26
2026-06-18 12:43:26.427859,-28.12
2026-06-18 12:43:26.432880,-31.96
2026-06-18 12:43:26.442960,-32.79
2026-06-18 12:43:26.442960,-30.64
2026-06-18 12:43:26.459180,-27.5
2026-06-18 12:43:26.460170,-27.36
2026-06-18 12:43:26.474890,-24.24
2026-06-18 12:43:26.482873,-21.13
2026-06-18 12:43:26.490116,-19.04
2026-06-18 12:43:26.498129,-13.97
2026-06-18 12:43:26.506127,-9.92
2026-06-18 12:43:26.513639,-4.89
2026-06-18 12:43:26.521901,-3.87
2026-06-18 12:43:26.528905,-4.85
2026-06-18 12:43:26.535829,-4.83
2026-06-18 12:43:26.543353,-5.8
2026-06-18 12:43:26.551795,-6.76
2026-06-18 12:43:26.560587,-9.71
2026-06-18 12:43:26.564745,-8.67
2026-06-18 12:43:26.576784,-10.62
2026-06-18 12:43:26.583728,-10.56
2026-06-18 12:43:26.592442,-14.49
2026-06-18 12:43:26.600253,-11.43
2026-06-18 12:43:26.607748,-12.37
2026-06-18 12:43:26.609718,-9.32
2026-06-18 12:43:26.621774,-9.28
2026-06-18 12:43:26.630870,-8.24
2026-06-18 12:43:26.638871,-6.2
2026-06-18 12:43:26.643018,-5.18
2026-06-18 12:43:26.653079,-8.14
2026-06-18 12:43:26.660041,-4.12
2026-06-18 12:43:26.668678,1.87
2026-06-18 12:43:26.678382,6.84
2026-06-18 12:43:26.682370,8.79
2026-06-18 12:43:26.693840,10.74
2026-06-18 12:43:26.693840,15.66
2026-06-18 12:43:26.709054,15.58
2026-06-18 12:43:26.709717,15.51
2026-06-18 12:43:26.724763,16.42
2026-06-18 12:43:26.726597,21.32
2026-06-18 12:43:26.738844,22.2
2026-06-18 12:43:26.743202,17.12
2026-06-18 12:43:26.754562,15.04
2026-06-18 12:43:26.759657,14.97
2026-06-18 12:43:26.770315,16.88
2026-06-18 12:43:26.776539,21.77
2026-06-18 12:43:26.785926,26.64
2026-06-18 12:43:26.793264,27.5
2026-06-18 12:43:26.801453,24.38
2026-06-18 12:43:26.810448,20.28
2026-06-18 12:43:26.814496,20.18
2026-06-18 12:43:26.826723,22.06
2026-06-18 12:43:26.826723,23.94
2026-06-18 12:43:26.842528,23.82
2026-06-18 12:43:26.849578,22.71
2026-06-18 12:43:26.858063,24.59
2026-06-18 12:43:26.859851,25.46
2026-06-18 12:43:26.871793,24.34
2026-06-18 12:43:26.876628,18.25
2026-06-18 12:43:26.887803,19.15
2026-06-18 12:43:26.893291,24.03
2026-06-18 12:43:26.903379,22.91
2026-06-18 12:43:26.909858,17.82
2026-06-18 12:43:26.918659,16.74
2026-06-18 12:43:26.928319,16.66
2026-06-18 12:43:26.933383,20.55
2026-06-18 12:43:26.943553,21.44
2026-06-18 12:43:26.951604,18.35
2026-06-18 12:43:26.958803,23.24
2026-06-18 12:43:26.966798,26.1
2026-06-18 12:43:26.974999,26.97
2026-06-18 12:43:26.981991,22.85
2026-06-18 12:43:26.989742,18.76
2026-06-18 12:43:26.994280,18.67
2026-06-18 12:43:27.004665,19.57
2026-06-18 12:43:27.009684,20.46
2026-06-18 12:43:27.020363,18.37
2026-06-18 12:43:27.029567,19.28
2026-06-18 12:43:27.032609,19.18
2026-06-18 12:43:27.043620,18.09
2026-06-18 12:43:27.043620,18.0
2026-06-18 12:43:27.060112,20.89
2026-06-18 12:43:27.068413,20.79
2026-06-18 12:43:27.076343,21.68
2026-06-18 12:43:27.083753,19.58
2026-06-18 12:43:27.091740,18.49
2026-06-18 12:43:27.099798,15.41
2026-06-18 12:43:27.106795,16.33
2026-06-18 12:43:27.109793,17.24
2026-06-18 12:43:27.121749,18.15
2026-06-18 12:43:27.126685,17.07
2026-06-18 12:43:27.137433,17.97
2026-06-18 12:43:27.142859,16.89
2026-06-18 12:43:27.153097,16.81
2026-06-18 12:43:27.162609,16.72
2026-06-18 12:43:27.165606,19.62
2026-06-18 12:43:27.177553,23.5
2026-06-18 12:43:27.185539,23.39
2026-06-18 12:43:27.192766,18.3
2026-06-18 12:43:27.192766,15.22
2026-06-18 12:43:27.209230,20.12
2026-06-18 12:43:27.213535,23.0
2026-06-18 12:43:27.224682,21.89
2026-06-18 12:43:27.226688,19.79
2026-06-18 12:43:27.239098,19.69
2026-06-18 12:43:27.242839,17.61
2026-06-18 12:43:27.254722,16.52
2026-06-18 12:43:27.259530,15.44
2026-06-18 12:43:27.270221,15.37
2026-06-18 12:43:27.278735,13.3
2026-06-18 12:43:27.287076,12.24
2026-06-18 12:43:27.295077,14.17
2026-06-18 12:43:27.301463,20.07
2026-06-18 12:43:27.311051,18.97
2026-06-18 12:43:27.315054,14.9
2026-06-18 12:43:27.326268,11.84
2026-06-18 12:43:27.326268,14.76
2026-06-18 12:43:27.342246,28.62
2026-06-18 12:43:27.349782,46.39
2026-06-18 12:43:27.357775,57.1
2026-06-18 12:43:27.365775,38.9
2026-06-18 12:43:27.372770,-2.09
2026-06-18 12:43:27.376301,-29.94
2026-06-18 12:43:27.387336,-21.83
2026-06-18 12:43:27.396364,4.15
2026-06-18 12:43:27.404234,22.04
2026-06-18 12:43:27.409482,13.97
2026-06-18 12:43:27.419312,3.95
2026-06-18 12:43:27.428208,7.91
2026-06-18 12:43:27.431268,13.84
2026-06-18 12:43:27.442694,17.75
2026-06-18 12:43:27.442694,16.67
2026-06-18 12:43:27.459545,14.6
2026-06-18 12:43:27.459545,9.55
2026-06-18 12:43:27.474487,2.54
2026-06-18 12:43:27.482604,-3.45
2026-06-18 12:43:27.489885,-3.43
2026-06-18 12:43:27.498107,1.56
2026-06-18 12:43:27.506410,6.53
2026-06-18 12:43:27.514015,10.48
2026-06-18 12:43:27.520167,9.43
2026-06-18 12:43:27.526488,10.38
2026-06-18 12:43:27.536101,16.3
2026-06-18 12:43:27.543089,19.2
2026-06-18 12:43:27.551461,22.09
2026-06-18 12:43:27.560998,24.96
2026-06-18 12:43:27.565045,30.81
2026-06-18 12:43:27.576447,37.62
2026-06-18 12:43:27.576447,43.4
2026-06-18 12:43:27.592187,45.17
2026-06-18 12:43:27.593196,50.92
2026-06-18 12:43:27.607972,52.65
2026-06-18 12:43:27.615573,49.41
2026-06-18 12:43:27.623106,44.18
2026-06-18 12:43:27.626727,33.02
2026-06-18 12:43:27.637416,18.92
2026-06-18 12:43:27.642853,4.9
2026-06-18 12:43:27.652959,-9.06
2026-06-18 12:43:27.662527,-18.96
2026-06-18 12:43:27.666523,-26.83
2026-06-18 12:43:27.676321,-25.7
2026-06-18 12:43:27.676321,-28.55
2026-06-18 12:43:27.692960,-29.41
2026-06-18 12:43:27.692960,-29.26
2026-06-18 12:43:27.709122,-30.11
2026-06-18 12:43:27.717135,-30.95
2026-06-18 12:43:27.724375,-31.79
2026-06-18 12:43:27.732414,-32.63
2026-06-18 12:43:27.739832,-28.49
2026-06-18 12:43:27.742591,-23.37
2026-06-18 12:43:27.754530,-18.28
2026-06-18 12:43:27.759686,-17.19
2026-06-18 12:43:27.770327,-17.1
2026-06-18 12:43:27.776182,-18.01
2026-06-18 12:43:27.786637,-14.94
2026-06-18 12:43:27.795234,-14.86
2026-06-18 12:43:27.799214,-14.79
2026-06-18 12:43:27.809489,-18.7
2026-06-18 12:43:27.817330,-22.58
2026-06-18 12:43:27.826322,-25.45
2026-06-18 12:43:27.834504,-26.32
2026-06-18 12:43:27.841533,-27.19
2026-06-18 12:43:27.842507,-27.05
2026-06-18 12:43:27.857825,-29.9
2026-06-18 12:43:27.859503,-34.72
2026-06-18 12:43:27.871770,-34.55
2026-06-18 12:43:27.876182,-30.4
2026-06-18 12:43:27.887308,-23.28
2026-06-18 12:43:27.893078,-24.16
2026-06-18 12:43:27.903019,-24.04
2026-06-18 12:43:27.909294,-22.92
2026-06-18 12:43:27.918630,-22.81
2026-06-18 12:43:27.926053,-22.69
2026-06-18 12:43:27.935304,-19.6
2026-06-18 12:43:27.943304,-17.51
2026-06-18 12:43:27.951304,-15.43
2026-06-18 12:43:27.959308,-19.33
2026-06-18 12:43:27.966512,-22.22
2026-06-18 12:43:27.974779,-21.12
2026-06-18 12:43:27.982759,-22.01
2026-06-18 12:43:27.989057,-20.9
2026-06-18 12:43:27.991601,-22.79
2026-06-18 12:43:28.004507,-21.68
2026-06-18 12:43:28.009356,-23.56
2026-06-18 12:43:28.021306,-24.44
2026-06-18 12:43:28.025059,-23.32
2026-06-18 12:43:28.035988,-21.21
2026-06-18 12:43:28.045190,-20.11
2026-06-18 12:43:28.053198,-20.01
2026-06-18 12:43:28.060140,-15.93
2026-06-18 12:43:28.068440,-15.85
2026-06-18 12:43:28.076369,-15.77
2026-06-18 12:43:28.083162,-14.7
2026-06-18 12:43:28.091889,-13.63
2026-06-18 12:43:28.098133,-18.54
2026-06-18 12:43:28.107683,-17.45
2026-06-18 12:43:28.109333,-16.37
2026-06-18 12:43:28.121819,-12.3
2026-06-18 12:43:28.125032,-11.25
2026-06-18 12:43:28.137995,-15.17
2026-06-18 12:43:28.141674,-21.07
2026-06-18 12:43:28.153813,-21.96
2026-06-18 12:43:28.158331,-18.86
2026-06-18 12:43:28.168683,-18.77
2026-06-18 12:43:28.177487,-20.66
2026-06-18 12:43:28.185469,-19.56
2026-06-18 12:43:28.193968,-15.49
2026-06-18 12:43:28.197981,-17.4
2026-06-18 12:43:28.209211,-19.3
2026-06-18 12:43:28.209211,-19.21
2026-06-18 12:43:28.224867,-17.12
2026-06-18 12:43:28.224867,-20.02
2026-06-18 12:43:28.239410,-19.92
2026-06-18 12:43:28.241527,-15.84
2026-06-18 12:43:28.255379,-9.79
2026-06-18 12:43:28.258302,-5.76
2026-06-18 12:43:28.270215,-2.75
2026-06-18 12:43:28.275080,-0.74
2026-06-18 12:43:28.285730,-0.74
2026-06-18 12:43:28.291696,-1.73
2026-06-18 12:43:28.301803,-2.72
2026-06-18 12:43:28.310627,-5.69
2026-06-18 12:43:28.314634,-10.64
2026-06-18 12:43:28.326836,-11.58
2026-06-18 12:43:28.326836,-11.52
2026-06-18 12:43:28.341460,-10.47
2026-06-18 12:43:28.343477,-7.43
2026-06-18 12:43:28.357701,-5.4
2026-06-18 12:43:28.358335,-7.37
2026-06-18 12:43:28.372614,-8.32
2026-06-18 12:43:28.381332,-8.28
2026-06-18 12:43:28.388401,-7.25
2026-06-18 12:43:28.396765,-3.23
2026-06-18 12:43:28.404716,5.74
2026-06-18 12:43:28.409721,15.66
2026-06-18 12:43:28.418615,35.49
2026-06-18 12:43:28.424944,42.27
2026-06-18 12:43:28.434269,21.17
2026-06-18 12:43:28.443861,-17.74
2026-06-18 12:43:28.447905,-40.54
2026-06-18 12:43:28.458312,-31.38
2026-06-18 12:43:28.458312,-4.36
2026-06-18 12:43:28.474513,12.58
2026-06-18 12:43:28.482560,13.51
2026-06-18 12:43:28.489861,13.44
2026-06-18 12:43:28.497880,19.34
2026-06-18 12:43:28.506139,21.24
2026-06-18 12:43:28.513666,20.14
2026-06-18 12:43:28.520162,20.03
2026-06-18 12:43:28.524797,13.96
2026-06-18 12:43:28.535889,11.9
2026-06-18 12:43:28.544908,10.85
2026-06-18 12:43:28.551514,8.81
2026-06-18 12:43:28.560947,10.75
2026-06-18 12:43:28.564985,9.7
2026-06-18 12:43:28.574682,5.67
2026-06-18 12:43:28.574682,5.65
2026-06-18 12:43:28.591472,6.61
2026-06-18 12:43:28.591472,5.58
2026-06-18 12:43:28.607600,7.55
2026-06-18 12:43:28.614932,9.5
2026-06-18 12:43:28.622928,14.43
2026-06-18 12:43:28.624641,18.33
2026-06-18 12:43:28.637293,25.21
2026-06-18 12:43:28.645345,26.08
2026-06-18 12:43:28.652907,30.92
2026-06-18 12:43:28.658153,39.72
