PC_Timestamp,ECG
2026-06-16 15:06:10.413524,33.57
2026-06-16 15:06:10.426146,23.45
2026-06-16 15:06:10.431941,-52.29
2026-06-16 15:06:10.431941,-23.17
2026-06-16 15:06:10.448985,88.38
2026-06-16 15:06:10.454076,158.59
2026-06-16 15:06:10.465999,98.09
2026-06-16 15:06:10.468555,-27.77
2026-06-16 15:06:10.481641,-131.11
2026-06-16 15:06:10.483551,-159.31
2026-06-16 15:06:10.497627,-143.59
2026-06-16 15:06:10.500456,-117.0
2026-06-16 15:06:10.500456,-104.47
2026-06-16 15:06:10.515788,-136.79
2026-06-16 15:06:10.526690,-247.54
2026-06-16 15:06:10.532575,-388.59
2026-06-16 15:06:10.532575,-443.36
2026-06-16 15:06:10.549485,-399.35
2026-06-16 15:06:10.549485,-317.76
2026-06-16 15:06:10.566853,-303.23
2026-06-16 15:06:10.572069,-342.51
2026-06-16 15:06:10.582883,-374.63
2026-06-16 15:06:10.585223,-349.87
2026-06-16 15:06:10.598708,-280.46
2026-06-16 15:06:10.600524,-204.43
2026-06-16 15:06:10.614440,-171.57
2026-06-16 15:06:10.617465,-199.57
2026-06-16 15:06:10.626840,-242.35
2026-06-16 15:06:10.631771,-228.2
2026-06-16 15:06:10.631771,-166.37
2026-06-16 15:06:10.649197,-125.74
2026-06-16 15:06:10.649197,-115.16
2026-06-16 15:06:10.666162,-75.78
2026-06-16 15:06:10.666162,15.15
2026-06-16 15:06:10.682753,57.86
2026-06-16 15:06:10.682753,31.7
2026-06-16 15:06:10.699518,-1.3
2026-06-16 15:06:10.699518,34.53
2026-06-16 15:06:10.716151,68.19
2026-06-16 15:06:10.719540,37.0
2026-06-16 15:06:10.731468,-15.92
2026-06-16 15:06:10.732145,-38.72
2026-06-16 15:06:10.747436,-4.7
2026-06-16 15:06:10.749931,35.12
2026-06-16 15:06:10.749931,39.92
2026-06-16 15:06:10.766522,48.68
2026-06-16 15:06:10.766522,59.38
2026-06-16 15:06:10.783224,61.07
2026-06-16 15:06:10.783224,97.58
2026-06-16 15:06:10.799702,170.72
2026-06-16 15:06:10.799702,256.43
2026-06-16 15:06:10.816619,274.06
2026-06-16 15:06:10.821811,320.45
2026-06-16 15:06:10.832844,471.08
2026-06-16 15:06:10.835938,561.26
2026-06-16 15:06:10.848226,439.05
2026-06-16 15:06:10.856440,181.14
2026-06-16 15:06:10.864273,98.65
2026-06-16 15:06:10.866713,319.04
2026-06-16 15:06:10.880461,580.13
2026-06-16 15:06:10.883083,689.66
2026-06-16 15:06:10.883083,717.06
2026-06-16 15:06:10.899618,790.09
2026-06-16 15:06:10.899618,881.66
2026-06-16 15:06:10.916092,845.41
2026-06-16 15:06:10.916092,738.7
2026-06-16 15:06:10.933547,717.1
2026-06-16 15:06:10.938924,792.12
2026-06-16 15:06:10.950425,786.16
2026-06-16 15:06:10.950425,652.88
2026-06-16 15:06:10.965360,503.35
2026-06-16 15:06:10.967199,440.14
2026-06-16 15:06:10.980948,406.1
2026-06-16 15:06:10.983971,321.49
2026-06-16 15:06:10.997484,182.57
2026-06-16 15:06:11.000260,68.23
2026-06-16 15:06:11.000260,19.13
2026-06-16 15:06:11.015674,-69.52
2026-06-16 15:06:11.028082,-198.52
2026-06-16 15:06:11.033287,-364.69
2026-06-16 15:06:11.033287,-587.74
2026-06-16 15:06:11.049943,-800.71
2026-06-16 15:06:11.055201,-961.88
2026-06-16 15:06:11.066388,-1121.25
2026-06-16 15:06:11.068525,-1295.73
2026-06-16 15:06:11.082913,-1403.68
2026-06-16 15:06:11.083216,-1401.64
2026-06-16 15:06:11.098663,-1397.61
2026-06-16 15:06:11.103198,-1449.33
2026-06-16 15:06:11.114236,-1526.66
2026-06-16 15:06:11.116583,-1586.69
2026-06-16 15:06:11.130416,-1551.89
2026-06-16 15:06:11.133386,-1443.63
2026-06-16 15:06:11.133386,-1328.95
2026-06-16 15:06:11.149323,-1204.9
2026-06-16 15:06:11.149323,-997.89
2026-06-16 15:06:11.166529,-791.91
2026-06-16 15:06:11.166529,-675.51
2026-06-16 15:06:11.182884,-663.18
2026-06-16 15:06:11.182884,-646.93
2026-06-16 15:06:11.199896,-524.29
2026-06-16 15:06:11.201655,-300.78
2026-06-16 15:06:11.215096,-146.05
2026-06-16 15:06:11.218251,-111.49
2026-06-16 15:06:11.230700,-85.06
2026-06-16 15:06:11.235049,-33.89
2026-06-16 15:06:11.247453,-10.84
2026-06-16 15:06:11.250132,-19.74
2026-06-16 15:06:11.250132,-56.45
2026-06-16 15:06:11.266099,-101.94
2026-06-16 15:06:11.266099,-110.39
2026-06-16 15:06:11.281790,-116.8
2026-06-16 15:06:11.281790,-145.07
2026-06-16 15:06:11.298870,-171.21
2026-06-16 15:06:11.298870,-146.47
2026-06-16 15:06:11.315837,-98.98
2026-06-16 15:06:11.315837,-49.73
2026-06-16 15:06:11.332131,-30.57
2026-06-16 15:06:11.332131,-39.37
2026-06-16 15:06:11.348371,-37.19
2026-06-16 15:06:11.351617,18.72
2026-06-16 15:06:11.364043,102.2
2026-06-16 15:06:11.368892,142.49
2026-06-16 15:06:11.368892,138.79
2026-06-16 15:06:11.381704,103.27
2026-06-16 15:06:11.381704,74.9
2026-06-16 15:06:11.398878,66.56
2026-06-16 15:06:11.398878,63.24
2026-06-16 15:06:11.415438,42.03
2026-06-16 15:06:11.415438,38.84
2026-06-16 15:06:11.432020,65.51
2026-06-16 15:06:11.432020,90.06
2026-06-16 15:06:11.448787,79.65
2026-06-16 15:06:11.448787,86.22
2026-06-16 15:06:11.465590,114.65
2026-06-16 15:06:11.465590,136.96
2026-06-16 15:06:11.481104,120.35
2026-06-16 15:06:11.481670,69.01
2026-06-16 15:06:11.496817,52.74
2026-06-16 15:06:11.498807,44.52
2026-06-16 15:06:11.498807,-42.27
2026-06-16 15:06:11.515757,-197.28
2026-06-16 15:06:11.515757,-315.69
2026-06-16 15:06:11.532224,-364.86
2026-06-16 15:06:11.532224,-387.91
2026-06-16 15:06:11.549739,-423.78
2026-06-16 15:06:11.549739,-456.49
2026-06-16 15:06:11.566241,-489.03
2026-06-16 15:06:11.566241,-498.52
2026-06-16 15:06:11.582694,-516.93
2026-06-16 15:06:11.583593,-558.12
2026-06-16 15:06:11.598467,-563.29
2026-06-16 15:06:11.600432,-545.55
2026-06-16 15:06:11.614139,-521.93
2026-06-16 15:06:11.617204,-501.41
2026-06-16 15:06:11.630411,-468.06
2026-06-16 15:06:11.633222,-398.05
2026-06-16 15:06:11.633222,-301.54
2026-06-16 15:06:11.649331,-230.38
2026-06-16 15:06:11.649331,-220.28
2026-06-16 15:06:11.666600,-291.81
2026-06-16 15:06:11.666600,-343.08
2026-06-16 15:06:11.682240,-352.31
2026-06-16 15:06:11.682240,-340.6
2026-06-16 15:06:11.699230,-377.7
2026-06-16 15:06:11.699230,-476.31
2026-06-16 15:06:11.715006,-440.1
2026-06-16 15:06:11.716857,-170.24
2026-06-16 15:06:11.730377,35.58
2026-06-16 15:06:11.733582,-118.83
2026-06-16 15:06:11.747410,-489.37
2026-06-16 15:06:11.750276,-678.95
2026-06-16 15:06:11.750276,-574.07
2026-06-16 15:06:11.766718,-408.02
2026-06-16 15:06:11.766718,-378.12
2026-06-16 15:06:11.782693,-434.93
2026-06-16 15:06:11.782693,-414.85
2026-06-16 15:06:11.800203,-395.86
2026-06-16 15:06:11.800203,-418.76
2026-06-16 15:06:11.816834,-391.79
2026-06-16 15:06:11.816834,-335.1
2026-06-16 15:06:11.832769,-357.31
2026-06-16 15:06:11.833531,-433.13
2026-06-16 15:06:11.848619,-487.68
2026-06-16 15:06:11.850297,-468.33
2026-06-16 15:06:11.864189,-379.42
2026-06-16 15:06:11.870132,-305.88
2026-06-16 15:06:11.878887,-283.46
2026-06-16 15:06:11.884710,-243.24
2026-06-16 15:06:11.884710,-185.31
2026-06-16 15:06:11.898535,-189.35
2026-06-16 15:06:11.898535,-212.29
2026-06-16 15:06:11.916759,-234.11
2026-06-16 15:06:11.921951,-237.92
2026-06-16 15:06:11.932994,-230.76
2026-06-16 15:06:11.932994,-242.54
2026-06-16 15:06:11.950007,-227.39
2026-06-16 15:06:11.950007,-139.69
2026-06-16 15:06:11.965001,-70.34
2026-06-16 15:06:11.966995,-86.9
2026-06-16 15:06:11.980685,-136.22
2026-06-16 15:06:11.983641,-160.41
2026-06-16 15:06:11.997363,-189.46
2026-06-16 15:06:12.000050,-190.5
2026-06-16 15:06:12.013546,-157.71
2026-06-16 15:06:12.016159,-98.22
2026-06-16 15:06:12.016159,-31.06
2026-06-16 15:06:12.032594,-61.75
2026-06-16 15:06:12.032594,-127.11
2026-06-16 15:06:12.049968,-128.47
2026-06-16 15:06:12.049968,-103.94
2026-06-16 15:06:12.066517,-119.34
2026-06-16 15:06:12.066517,-167.5
2026-06-16 15:06:12.082761,-198.5
2026-06-16 15:06:12.082761,-167.66
2026-06-16 15:06:12.098125,-98.17
2026-06-16 15:06:12.100095,-20.07
2026-06-16 15:06:12.113750,89.48
2026-06-16 15:06:12.116484,255.2
2026-06-16 15:06:12.130289,394.22
2026-06-16 15:06:12.132845,460.9
2026-06-16 15:06:12.132845,528.25
2026-06-16 15:06:12.148753,616.15
2026-06-16 15:06:12.148753,712.57
2026-06-16 15:06:12.165799,766.72
2026-06-16 15:06:12.165799,758.91
2026-06-16 15:06:12.182486,737.2
2026-06-16 15:06:12.182486,740.48
2026-06-16 15:06:12.199005,740.76
2026-06-16 15:06:12.199005,698.25
2026-06-16 15:06:12.214833,615.16
2026-06-16 15:06:12.216457,558.35
2026-06-16 15:06:12.231115,526.71
2026-06-16 15:06:12.233147,541.98
2026-06-16 15:06:12.247263,612.9
2026-06-16 15:06:12.250105,681.48
2026-06-16 15:06:12.250105,715.88
2026-06-16 15:06:12.268619,654.59
2026-06-16 15:06:12.277615,528.93
2026-06-16 15:06:12.281726,374.05
2026-06-16 15:06:12.281726,275.67
2026-06-16 15:06:12.298407,244.44
2026-06-16 15:06:12.298407,196.45
2026-06-16 15:06:12.314961,174.57
2026-06-16 15:06:12.314961,147.83
2026-06-16 15:06:12.331686,-128.52
2026-06-16 15:06:12.331686,-677.12
2026-06-16 15:06:12.347697,-1160.29
2026-06-16 15:06:12.348633,-1145.53
2026-06-16 15:06:12.363192,-757.73
2026-06-16 15:06:12.365204,-547.97
2026-06-16 15:06:12.365204,-780.05
2026-06-16 15:06:12.386129,-1144.3
2026-06-16 15:06:12.391358,-1096.79
2026-06-16 15:06:12.397363,-707.24
2026-06-16 15:06:12.397363,-510.67
2026-06-16 15:06:12.414798,-679.26
2026-06-16 15:06:12.414798,-915.66
2026-06-16 15:06:12.431260,-997.64
2026-06-16 15:06:12.431260,-893.15
2026-06-16 15:06:12.448038,-730.48
2026-06-16 15:06:12.448038,-661.16
2026-06-16 15:06:12.465075,-696.66
2026-06-16 15:06:12.465075,-720.04
2026-06-16 15:06:12.480868,-639.83
2026-06-16 15:06:12.481430,-404.79
2026-06-16 15:06:12.496453,-127.15
2026-06-16 15:06:12.497975,-86.72
2026-06-16 15:06:12.497975,-284.29
2026-06-16 15:06:12.515067,-403.26
2026-06-16 15:06:12.515067,-364.43
2026-06-16 15:06:12.532173,-334.75
2026-06-16 15:06:12.532173,-310.19
2026-06-16 15:06:12.548589,-260.88
2026-06-16 15:06:12.548589,-180.97
2026-06-16 15:06:12.566154,-133.3
2026-06-16 15:06:12.571339,-186.36
2026-06-16 15:06:12.583016,-223.24
2026-06-16 15:06:12.583016,-121.63
2026-06-16 15:06:12.598019,3.35
2026-06-16 15:06:12.598986,-78.25
2026-06-16 15:06:12.613684,-309.7
2026-06-16 15:06:12.616704,-426.55
2026-06-16 15:06:12.630210,-376.66
2026-06-16 15:06:12.633142,-341.94
2026-06-16 15:06:12.633142,-410.88
2026-06-16 15:06:12.649708,-488.42
2026-06-16 15:06:12.649708,-438.22
2026-06-16 15:06:12.665965,-398.22
2026-06-16 15:06:12.665965,-489.76
2026-06-16 15:06:12.682673,-626.61
2026-06-16 15:06:12.682673,-633.43
2026-06-16 15:06:12.699376,-513.85
2026-06-16 15:06:12.699376,-539.14
2026-06-16 15:06:12.715625,-700.62
2026-06-16 15:06:12.715926,-654.33
2026-06-16 15:06:12.730253,-638.12
2026-06-16 15:06:12.732604,-1043.88
2026-06-16 15:06:12.748234,-1575.96
2026-06-16 15:06:12.750234,-1549.17
2026-06-16 15:06:12.763096,-802.14
2026-06-16 15:06:12.765500,-77.75
2026-06-16 15:06:12.765500,-39.55
2026-06-16 15:06:12.782070,-461.23
2026-06-16 15:06:12.782070,-682.8
2026-06-16 15:06:12.798845,-727.15
2026-06-16 15:06:12.798845,-953.36
2026-06-16 15:06:12.816618,-1156.55
2026-06-16 15:06:12.816618,-1180.61
2026-06-16 15:06:12.833025,-1191.62
2026-06-16 15:06:12.833025,-1220.49
2026-06-16 15:06:12.848107,-1231.3
2026-06-16 15:06:12.849056,-1160.47
2026-06-16 15:06:12.863800,-1043.23
2026-06-16 15:06:12.866287,-1083.78
2026-06-16 15:06:12.880143,-1247.52
2026-06-16 15:06:12.883164,-1388.54
2026-06-16 15:06:12.895206,-1423.38
2026-06-16 15:06:12.902777,-1318.76
2026-06-16 15:06:12.906699,-1292.26
2026-06-16 15:06:12.915402,-1348.49
2026-06-16 15:06:12.915402,-1435.28
2026-06-16 15:06:12.932077,-1587.3
2026-06-16 15:06:12.932077,-1657.97
2026-06-16 15:06:12.948972,-1648.68
2026-06-16 15:06:12.948972,-1399.65
2026-06-16 15:06:12.965585,-979.73
2026-06-16 15:06:12.965585,-632.55
2026-06-16 15:06:12.981323,-475.16
2026-06-16 15:06:12.982895,-467.81
2026-06-16 15:06:12.997057,-398.8
2026-06-16 15:06:13.000415,-394.82
2026-06-16 15:06:13.000415,-465.48
2026-06-16 15:06:13.014816,-483.05
2026-06-16 15:06:13.014816,-502.53
2026-06-16 15:06:13.031951,-474.15
2026-06-16 15:06:13.031951,-452.87
2026-06-16 15:06:13.048384,-452.6
2026-06-16 15:06:13.048384,-435.41
2026-06-16 15:06:13.065004,-424.28
2026-06-16 15:06:13.065004,-395.29
2026-06-16 15:06:13.081227,-356.5
2026-06-16 15:06:13.081227,-344.77
2026-06-16 15:06:13.097611,-350.01
2026-06-16 15:06:13.098523,-328.36
2026-06-16 15:06:13.113169,-287.91
2026-06-16 15:06:13.115196,-263.59
2026-06-16 15:06:13.129604,-258.29
2026-06-16 15:06:13.132322,-251.03
2026-06-16 15:06:13.132322,-231.86
2026-06-16 15:06:13.148606,-223.74
2026-06-16 15:06:13.148606,-222.62
2026-06-16 15:06:13.165005,-198.62
2026-06-16 15:06:13.165005,-148.87
2026-06-16 15:06:13.182813,-103.35
2026-06-16 15:06:13.182813,-92.89
2026-06-16 15:06:13.199883,-61.58
2026-06-16 15:06:13.202341,1.42
2026-06-16 15:06:13.215479,-16.5
2026-06-16 15:06:13.216489,-41.29
2026-06-16 15:06:13.230883,2.69
2026-06-16 15:06:13.232589,136.01
2026-06-16 15:06:13.246850,319.4
2026-06-16 15:06:13.249623,181.49
2026-06-16 15:06:13.263130,83.08
2026-06-16 15:06:13.265634,293.6
2026-06-16 15:06:13.265634,478.2
2026-06-16 15:06:13.281515,210.14
2026-06-16 15:06:13.281515,-741.13
2026-06-16 15:06:13.298184,-1541.39
2026-06-16 15:06:13.298184,-1784.42
2026-06-16 15:06:13.315531,-1829.23
2026-06-16 15:06:13.315531,-2313.6
2026-06-16 15:06:13.332824,-2972.67
2026-06-16 15:06:13.332824,-3159.79
2026-06-16 15:06:13.347825,-2989.76
2026-06-16 15:06:13.348631,-2661.39
2026-06-16 15:06:13.363426,-3000.31
2026-06-16 15:06:13.365437,-4188.27
2026-06-16 15:06:13.379974,-5246.9
2026-06-16 15:06:13.381997,-5529.12
2026-06-16 15:06:13.381997,-5299.48
2026-06-16 15:06:13.398869,-5146.62
2026-06-16 15:06:13.407300,-5052.23
2026-06-16 15:06:13.415329,-4836.93
2026-06-16 15:06:13.421114,-4368.97
2026-06-16 15:06:13.433012,-4158.08
2026-06-16 15:06:13.433012,-4920.35
2026-06-16 15:06:13.448856,-5875.83
2026-06-16 15:06:13.448856,-6159.87
2026-06-16 15:06:13.465449,-5783.81
2026-06-16 15:06:13.471252,-5119.08
2026-06-16 15:06:13.481176,-4529.32
2026-06-16 15:06:13.484354,-4258.92
2026-06-16 15:06:13.497072,-4072.46
2026-06-16 15:06:13.499771,-3751.6
2026-06-16 15:06:13.513119,-3721.9
2026-06-16 15:06:13.516044,-4018.71
2026-06-16 15:06:13.516044,-4110.05
2026-06-16 15:06:13.533516,-3809.91
2026-06-16 15:06:13.533516,-3369.97
2026-06-16 15:06:13.549732,-3024.77
2026-06-16 15:06:13.549732,-2953.93
2026-06-16 15:06:13.566066,-2896.38
2026-06-16 15:06:13.571475,-2659.01
2026-06-16 15:06:13.582267,-2555.17
2026-06-16 15:06:13.585890,-2624.98
2026-06-16 15:06:13.598788,-2336.24
2026-06-16 15:06:13.599705,-1794.23
2026-06-16 15:06:13.613524,-1393.23
2026-06-16 15:06:13.616181,-1491.73
2026-06-16 15:06:13.630138,-1913.12
2026-06-16 15:06:13.633933,-1694.6
2026-06-16 15:06:13.646289,-855.3
2026-06-16 15:06:13.648718,-215.22
2026-06-16 15:06:13.648718,-243.0
2026-06-16 15:06:13.665016,-501.48
2026-06-16 15:06:13.665016,-525.84
2026-06-16 15:06:13.682681,-449.58
2026-06-16 15:06:13.682681,-438.38
2026-06-16 15:06:13.699605,-410.31
2026-06-16 15:06:13.699605,1.68
2026-06-16 15:06:13.716298,667.33
2026-06-16 15:06:13.716298,808.26
2026-06-16 15:06:13.730508,598.26
2026-06-16 15:06:13.734233,650.99
2026-06-16 15:06:13.746459,893.5
2026-06-16 15:06:13.749095,1075.09
2026-06-16 15:06:13.762938,1085.64
2026-06-16 15:06:13.764947,1190.65
2026-06-16 15:06:13.764947,1586.68
2026-06-16 15:06:13.781040,2035.45
2026-06-16 15:06:13.781040,2191.44
2026-06-16 15:06:13.798992,2151.63
2026-06-16 15:06:13.798992,2049.33
2026-06-16 15:06:13.816036,1871.92
2026-06-16 15:06:13.816036,1706.35
2026-06-16 15:06:13.832242,1648.07
2026-06-16 15:06:13.834333,1680.62
2026-06-16 15:06:13.848558,1915.99
2026-06-16 15:06:13.850482,2495.45
2026-06-16 15:06:13.864517,3165.55
2026-06-16 15:06:13.867113,3606.42
2026-06-16 15:06:13.880249,3741.62
2026-06-16 15:06:13.883248,3663.21
2026-06-16 15:06:13.883248,3611.07
2026-06-16 15:06:13.898707,3492.52
2026-06-16 15:06:13.898707,3144.72
2026-06-16 15:06:13.915760,2932.98
2026-06-16 15:06:13.921848,3142.19
2026-06-16 15:06:13.934094,3620.0
2026-06-16 15:06:13.934617,3907.36
2026-06-16 15:06:13.948482,3881.85
2026-06-16 15:06:13.948482,3817.67
2026-06-16 15:06:13.965357,4073.2
2026-06-16 15:06:13.973156,4543.37
2026-06-16 15:06:13.981011,4542.54
2026-06-16 15:06:13.982692,4047.21
2026-06-16 15:06:13.996728,3734.44
2026-06-16 15:06:14.000137,3821.24
2026-06-16 15:06:14.012950,3886.71
2026-06-16 15:06:14.015832,3819.51
2026-06-16 15:06:14.015832,3902.9
2026-06-16 15:06:14.034577,4179.9
2026-06-16 15:06:14.034577,4384.86
2026-06-16 15:06:14.048252,4252.49
2026-06-16 15:06:14.048252,4167.55
2026-06-16 15:06:14.065522,4522.82
2026-06-16 15:06:14.065522,4895.22
2026-06-16 15:06:14.082608,4921.49
2026-06-16 15:06:14.082608,4758.58
2026-06-16 15:06:14.097783,4690.01
2026-06-16 15:06:14.101964,4790.94
2026-06-16 15:06:14.113324,4874.44
2026-06-16 15:06:14.116195,4832.16
2026-06-16 15:06:14.130219,4697.55
2026-06-16 15:06:14.135456,4646.21
2026-06-16 15:06:14.135456,4727.45
2026-06-16 15:06:14.148846,4766.5
2026-06-16 15:06:14.148846,4632.22
2026-06-16 15:06:14.165556,4377.22
2026-06-16 15:06:14.165556,4261.81
2026-06-16 15:06:14.181724,4373.83
2026-06-16 15:06:14.181724,4632.55
2026-06-16 15:06:14.199023,4905.9
2026-06-16 15:06:14.199023,4866.44
2026-06-16 15:06:14.215295,4284.91
2026-06-16 15:06:14.215865,3499.33
2026-06-16 15:06:14.231049,3119.65
2026-06-16 15:06:14.235637,3260.27
2026-06-16 15:06:14.246721,3425.05
2026-06-16 15:06:14.249544,3246.74
2026-06-16 15:06:14.262817,2997.68
2026-06-16 15:06:14.265857,2962.79
2026-06-16 15:06:14.265857,2877.33
2026-06-16 15:06:14.281654,2530.61
2026-06-16 15:06:14.281654,2220.45
2026-06-16 15:06:14.297796,2187.46
2026-06-16 15:06:14.297796,2332.74
2026-06-16 15:06:14.314419,2430.53
2026-06-16 15:06:14.314419,2566.63
2026-06-16 15:06:14.331378,2773.69
2026-06-16 15:06:14.335945,2825.49
2026-06-16 15:06:14.347569,2636.24
2026-06-16 15:06:14.347569,2416.1
2026-06-16 15:06:14.363787,2384.12
2026-06-16 15:06:14.364791,2528.42
2026-06-16 15:06:14.379287,2658.06
2026-06-16 15:06:14.381779,2657.7
2026-06-16 15:06:14.381779,2612.58
2026-06-16 15:06:14.397611,2539.81
2026-06-16 15:06:14.397611,2370.9
2026-06-16 15:06:14.414714,2164.02
2026-06-16 15:06:14.414714,1995.99
2026-06-16 15:06:14.433782,1869.6
2026-06-16 15:06:14.440056,1890.1
2026-06-16 15:06:14.448848,2053.78
2026-06-16 15:06:14.448848,2125.1
2026-06-16 15:06:14.464486,1957.27
2026-06-16 15:06:14.464486,1680.82
2026-06-16 15:06:14.481026,1509.24
2026-06-16 15:06:14.481026,1510.64
2026-06-16 15:06:14.496087,1472.25
2026-06-16 15:06:14.498110,1212.15
2026-06-16 15:06:14.498110,915.55
2026-06-16 15:06:14.515456,754.76
2026-06-16 15:06:14.515456,640.54
2026-06-16 15:06:14.531904,467.19
2026-06-16 15:06:14.536392,418.09
2026-06-16 15:06:14.547946,586.15
2026-06-16 15:06:14.547946,731.47
2026-06-16 15:06:14.564747,589.51
2026-06-16 15:06:14.564747,295.03
2026-06-16 15:06:14.581401,135.35
2026-06-16 15:06:14.581401,134.67
2026-06-16 15:06:14.597909,107.13
2026-06-16 15:06:14.597909,-30.71
2026-06-16 15:06:14.613746,-150.95
2026-06-16 15:06:14.615300,-167.11
2026-06-16 15:06:14.629378,-182.2
2026-06-16 15:06:14.636614,-290.74
2026-06-16 15:06:14.636614,-365.9
2026-06-16 15:06:14.648240,-286.46
2026-06-16 15:06:14.648240,-241.25
2026-06-16 15:06:14.668176,-507.7
2026-06-16 15:06:14.668176,-877.29
2026-06-16 15:06:14.681091,-1006.23
2026-06-16 15:06:14.681091,-911.65
2026-06-16 15:06:14.697946,-852.37
2026-06-16 15:06:14.697946,-913.78
2026-06-16 15:06:14.715338,-985.82
2026-06-16 15:06:14.715338,-927.16
2026-06-16 15:06:14.731263,-910.59
2026-06-16 15:06:14.736978,-1112.0
2026-06-16 15:06:14.746115,-1298.47
2026-06-16 15:06:14.749071,-1211.39
2026-06-16 15:06:14.762652,-1019.26
2026-06-16 15:06:14.765406,-993.27
2026-06-16 15:06:14.765406,-1129.6
2026-06-16 15:06:14.780530,-1187.63
2026-06-16 15:06:14.780530,-936.92
2026-06-16 15:06:14.798373,-559.11
2026-06-16 15:06:14.798373,-504.58
2026-06-16 15:06:14.815683,-886.12
2026-06-16 15:06:14.815683,-1196.11
2026-06-16 15:06:14.831595,-1076.7
2026-06-16 15:06:14.837470,-791.72
2026-06-16 15:06:14.848694,-691.25
2026-06-16 15:06:14.848694,-833.06
2026-06-16 15:06:14.863600,-966.21
2026-06-16 15:06:14.865250,-963.37
2026-06-16 15:06:14.879309,-977.45
2026-06-16 15:06:14.882050,-1000.43
2026-06-16 15:06:14.882050,-953.64
2026-06-16 15:06:14.897810,-898.12
2026-06-16 15:06:14.897810,-914.53
2026-06-16 15:06:14.914978,-1014.43
2026-06-16 15:06:14.914978,-1054.13
2026-06-16 15:06:14.931529,-1024.98
2026-06-16 15:06:14.937559,-955.18
2026-06-16 15:06:14.949082,-890.71
2026-06-16 15:06:14.955408,-890.23
2026-06-16 15:06:14.964339,-871.85
2026-06-16 15:06:14.964339,-781.92
2026-06-16 15:06:14.980698,-687.47
2026-06-16 15:06:14.982207,-707.91
2026-06-16 15:06:14.997492,-800.89
2026-06-16 15:06:14.999229,-720.27
2026-06-16 15:06:15.012908,-415.18
2026-06-16 15:06:15.015805,-95.7
2026-06-16 15:06:15.015805,-16.61
2026-06-16 15:06:15.031939,-339.91
2026-06-16 15:06:15.037903,-895.41
2026-06-16 15:06:15.048126,-1302.86
2026-06-16 15:06:15.048126,-1307.29
2026-06-16 15:06:15.065318,-1121.65
2026-06-16 15:06:15.065318,-1108.09
2026-06-16 15:06:15.081501,-1253.79
2026-06-16 15:06:15.081501,-1320.15
2026-06-16 15:06:15.098390,-1281.71
2026-06-16 15:06:15.099337,-1262.37
2026-06-16 15:06:15.113923,-1289.89
2026-06-16 15:06:15.115780,-1254.58
2026-06-16 15:06:15.129833,-1137.86
2026-06-16 15:06:15.137936,-975.96
2026-06-16 15:06:15.145879,-816.85
2026-06-16 15:06:15.148783,-741.13
2026-06-16 15:06:15.148783,-683.69
2026-06-16 15:06:15.164487,-571.82
2026-06-16 15:06:15.164487,-367.97
2026-06-16 15:06:15.181539,-183.05
2026-06-16 15:06:15.181539,-66.72
2026-06-16 15:06:15.197697,68.94
2026-06-16 15:06:15.197697,188.99
2026-06-16 15:06:15.214740,260.68
2026-06-16 15:06:15.214740,330.02
2026-06-16 15:06:15.230603,453.74
2026-06-16 15:06:15.238165,552.96
2026-06-16 15:06:15.246187,536.27
2026-06-16 15:06:15.248573,486.82
2026-06-16 15:06:15.262915,497.32
2026-06-16 15:06:15.266493,558.51
2026-06-16 15:06:15.266493,643.28
2026-06-16 15:06:15.280655,730.61
2026-06-16 15:06:15.280655,745.86
2026-06-16 15:06:15.297493,614.77
2026-06-16 15:06:15.297493,480.36
2026-06-16 15:06:15.314282,467.01
2026-06-16 15:06:15.314282,529.35
2026-06-16 15:06:15.331490,509.79
2026-06-16 15:06:15.338327,357.0
2026-06-16 15:06:15.348028,212.93
2026-06-16 15:06:15.348028,170.07
2026-06-16 15:06:15.363913,159.27
2026-06-16 15:06:15.364922,155.49
2026-06-16 15:06:15.379660,198.49
2026-06-16 15:06:15.382359,222.37
2026-06-16 15:06:15.395828,157.58
2026-06-16 15:06:15.398256,-20.32
2026-06-16 15:06:15.398256,-128.67
2026-06-16 15:06:15.415393,-88.23
2026-06-16 15:06:15.415393,-10.17
2026-06-16 15:06:15.431331,-21.07
2026-06-16 15:06:15.438921,-84.64
2026-06-16 15:06:15.448091,-53.37
2026-06-16 15:06:15.448091,27.49
2026-06-16 15:06:15.465300,16.4
2026-06-16 15:06:15.470971,-70.24
2026-06-16 15:06:15.480835,-105.71
2026-06-16 15:06:15.480835,-87.27
2026-06-16 15:06:15.496063,-217.18
2026-06-16 15:06:15.498044,-452.91
2026-06-16 15:06:15.512867,-527.26
2026-06-16 15:06:15.515527,-404.22
2026-06-16 15:06:15.515527,-258.92
2026-06-16 15:06:15.531120,-273.55
2026-06-16 15:06:15.539352,-300.04
2026-06-16 15:06:15.547970,-175.16
2026-06-16 15:06:15.547970,-41.95
2026-06-16 15:06:15.565119,-68.61
2026-06-16 15:06:15.565119,-132.94
2026-06-16 15:06:15.581337,-9.89
2026-06-16 15:06:15.581337,223.99
2026-06-16 15:06:15.598119,322.37
2026-06-16 15:06:15.604153,287.92
2026-06-16 15:06:15.613846,290.46
2026-06-16 15:06:15.615442,390.5
2026-06-16 15:06:15.629531,435.31
2026-06-16 15:06:15.632564,341.59
2026-06-16 15:06:15.645869,246.36
2026-06-16 15:06:15.648851,269.0
2026-06-16 15:06:15.648851,351.24
2026-06-16 15:06:15.664932,353.46
2026-06-16 15:06:15.664932,281.05
2026-06-16 15:06:15.682337,208.01
2026-06-16 15:06:15.682337,125.38
2026-06-16 15:06:15.698745,-9.58
2026-06-16 15:06:15.698745,-143.85
2026-06-16 15:06:15.715620,-176.96
2026-06-16 15:06:15.723104,-140.26
2026-06-16 15:06:15.730578,-144.53
2026-06-16 15:06:15.735163,-184.61
2026-06-16 15:06:15.746145,-161.79
2026-06-16 15:06:15.747997,-117.2
2026-06-16 15:06:15.762833,-85.77
2026-06-16 15:06:15.765431,-146.04
2026-06-16 15:06:15.765431,-216.95
2026-06-16 15:06:15.782082,-20.84
2026-06-16 15:06:15.782082,159.36
2026-06-16 15:06:15.798747,-263.32
2026-06-16 15:06:15.798747,-1315.71
2026-06-16 15:06:15.814847,-2261.35
2026-06-16 15:06:15.814847,-2422.17
2026-06-16 15:06:15.831509,-2124.5
2026-06-16 15:06:15.840307,-2067.11
2026-06-16 15:06:15.848426,-2375.18
2026-06-16 15:06:15.848426,-2460.81
2026-06-16 15:06:15.863742,-2083.34
2026-06-16 15:06:15.865341,-1742.58
2026-06-16 15:06:15.879523,-1675.17
2026-06-16 15:06:15.882299,-1804.1
2026-06-16 15:06:15.895881,-1900.55
2026-06-16 15:06:15.898864,-1799.51
2026-06-16 15:06:15.898864,-1507.93
2026-06-16 15:06:15.914242,-1140.2
2026-06-16 15:06:15.914242,-818.09
2026-06-16 15:06:15.931728,-571.22
2026-06-16 15:06:15.940574,-370.36
2026-06-16 15:06:15.948790,-231.2
2026-06-16 15:06:15.948790,-153.42
2026-06-16 15:06:15.965183,-124.8
2026-06-16 15:06:15.965183,15.13
2026-06-16 15:06:15.981358,254.85
2026-06-16 15:06:15.988813,330.19
2026-06-16 15:06:15.997107,332.52
2026-06-16 15:06:15.998842,349.76
2026-06-16 15:06:16.012719,491.29
2026-06-16 15:06:16.014782,889.82
2026-06-16 15:06:16.014782,1138.1
2026-06-16 15:06:16.031284,1103.55
2026-06-16 15:06:16.040987,1636.33
2026-06-16 15:06:16.048303,3305.72
2026-06-16 15:06:16.048303,4879.2
2026-06-16 15:06:16.065500,4917.49
2026-06-16 15:06:16.065500,3873.03
2026-06-16 15:06:16.082278,3113.38
2026-06-16 15:06:16.082278,3291.84
2026-06-16 15:06:16.098151,3465.43
2026-06-16 15:06:16.098757,2977.46
2026-06-16 15:06:16.113871,2681.99
2026-06-16 15:06:16.115813,2965.09
2026-06-16 15:06:16.129442,3099.51
2026-06-16 15:06:16.132262,2689.0
2026-06-16 15:06:16.145776,2283.52
2026-06-16 15:06:16.148596,2233.3
2026-06-16 15:06:16.148596,2293.77
2026-06-16 15:06:16.164210,2299.22
2026-06-16 15:06:16.164210,2213.1
2026-06-16 15:06:16.181383,2172.18
2026-06-16 15:06:16.181383,2197.14
2026-06-16 15:06:16.199157,2073.72
2026-06-16 15:06:16.199157,1957.88
2026-06-16 15:06:16.215250,1965.01
2026-06-16 15:06:16.215250,1942.25
2026-06-16 15:06:16.231159,1751.45
2026-06-16 15:06:16.231681,1628.27
2026-06-16 15:06:16.246856,1881.81
2026-06-16 15:06:16.248404,2191.8
2026-06-16 15:06:16.262826,2068.4
2026-06-16 15:06:16.268673,1267.03
2026-06-16 15:06:16.268673,225.9
2026-06-16 15:06:16.280159,-564.27
2026-06-16 15:06:16.280159,-982.33
2026-06-16 15:06:16.297448,-668.97
2026-06-16 15:06:16.297448,-107.43
2026-06-16 15:06:16.313906,-180.52
2026-06-16 15:06:16.313906,-500.01
2026-06-16 15:06:16.330649,-218.91
2026-06-16 15:06:16.330649,625.95
2026-06-16 15:06:16.347754,953.16
2026-06-16 15:06:16.347754,290.7
2026-06-16 15:06:16.363616,-517.7
2026-06-16 15:06:16.365264,-600.68
2026-06-16 15:06:16.379178,-209.63
2026-06-16 15:06:16.382136,-251.37
2026-06-16 15:06:16.395682,-595.38
2026-06-16 15:06:16.398461,-740.65
2026-06-16 15:06:16.398461,-738.94
2026-06-16 15:06:16.415263,-646.69
2026-06-16 15:06:16.415263,-415.6
2026-06-16 15:06:16.431783,-167.76
2026-06-16 15:06:16.442183,-14.69
2026-06-16 15:06:16.449237,85.88
2026-06-16 15:06:16.454447,20.78
2026-06-16 15:06:16.465568,-52.96
2026-06-16 15:06:16.465568,149.29
2026-06-16 15:06:16.481086,707.74
2026-06-16 15:06:16.481845,1448.46
2026-06-16 15:06:16.496648,1876.03
2026-06-16 15:06:16.500831,2086.55
2026-06-16 15:06:16.512809,2088.05
2026-06-16 15:06:16.514825,1898.51
2026-06-16 15:06:16.514825,1825.34
2026-06-16 15:06:16.530749,1615.22
2026-06-16 15:06:16.542383,1255.91
2026-06-16 15:06:16.547618,574.03
2026-06-16 15:06:16.547618,-331.31
2026-06-16 15:06:16.564418,-995.3
2026-06-16 15:06:16.564418,-1178.38
2026-06-16 15:06:16.581841,-911.8
2026-06-16 15:06:16.587048,-685.36
2026-06-16 15:06:16.598220,-595.37
2026-06-16 15:06:16.598220,-643.13
2026-06-16 15:06:16.613542,-768.27
2026-06-16 15:06:16.615535,-756.47
2026-06-16 15:06:16.629379,-800.45
2026-06-16 15:06:16.632295,-1091.96
2026-06-16 15:06:16.645720,-1546.19
2026-06-16 15:06:16.648743,-1834.97
2026-06-16 15:06:16.648743,-1795.95
2026-06-16 15:06:16.664086,-1730.25
2026-06-16 15:06:16.664086,-1912.64
2026-06-16 15:06:16.681493,-2161.78
2026-06-16 15:06:16.681493,-2230.57
2026-06-16 15:06:16.698614,-2389.56
2026-06-16 15:06:16.698614,-2836.31
2026-06-16 15:06:16.715331,-3150.48
2026-06-16 15:06:16.715331,-2851.15
2026-06-16 15:06:16.731244,-2367.25
2026-06-16 15:06:16.732054,-2522.58
2026-06-16 15:06:16.746771,-3133.83
2026-06-16 15:06:16.752820,-3188.8
2026-06-16 15:06:16.762761,-2525.12
2026-06-16 15:06:16.769176,-2055.78
2026-06-16 15:06:16.778727,-2169.88
2026-06-16 15:06:16.781107,-2477.43
2026-06-16 15:06:16.781107,-2484.94
2026-06-16 15:06:16.799122,-2346.15
2026-06-16 15:06:16.799122,-2322.48
2026-06-16 15:06:16.814366,-2237.24
2026-06-16 15:06:16.814366,-2043.97
2026-06-16 15:06:16.831833,-1824.8
2026-06-16 15:06:16.831833,-1480.36
2026-06-16 15:06:16.847374,-904.81
2026-06-16 15:06:16.847374,-349.06
2026-06-16 15:06:16.863262,-199.06
2026-06-16 15:06:16.864772,-417.96
2026-06-16 15:06:16.880027,-700.44
2026-06-16 15:06:16.881729,-874.05
2026-06-16 15:06:16.895551,-915.45
2026-06-16 15:06:16.898362,-903.91
2026-06-16 15:06:16.898362,-795.91
2026-06-16 15:06:16.915150,-589.94
2026-06-16 15:06:16.915150,-382.02
2026-06-16 15:06:16.931788,-167.18
2026-06-16 15:06:16.931788,64.49
2026-06-16 15:06:16.948678,300.98
2026-06-16 15:06:16.954073,569.12
2026-06-16 15:06:16.964735,789.16
2026-06-16 15:06:16.964735,952.37
2026-06-16 15:06:16.980327,1106.81
2026-06-16 15:06:16.981811,1292.31
2026-06-16 15:06:16.996844,1411.22
2026-06-16 15:06:16.998768,1273.82
2026-06-16 15:06:17.012234,984.87
2026-06-16 15:06:17.014613,821.74
2026-06-16 15:06:17.028506,926.09
2026-06-16 15:06:17.030922,1159.26
2026-06-16 15:06:17.044186,1392.27
2026-06-16 15:06:17.047195,1549.48
2026-06-16 15:06:17.047195,1582.53
2026-06-16 15:06:17.065013,1469.15
2026-06-16 15:06:17.065013,1169.27
2026-06-16 15:06:17.081366,670.9
2026-06-16 15:06:17.081366,53.63
2026-06-16 15:06:17.097907,-497.87
2026-06-16 15:06:17.098788,-915.27
2026-06-16 15:06:17.113302,-1199.24
2026-06-16 15:06:17.114767,-1304.69
2026-06-16 15:06:17.130154,-1291.2
2026-06-16 15:06:17.132496,-1300.66
2026-06-16 15:06:17.145454,-1405.6
2026-06-16 15:06:17.148204,-1544.84
2026-06-16 15:06:17.148204,-1502.29
2026-06-16 15:06:17.164547,-1222.15
2026-06-16 15:06:17.164547,-858.83
2026-06-16 15:06:17.181574,-648.57
2026-06-16 15:06:17.181574,-614.48
2026-06-16 15:06:17.199048,-614.39
2026-06-16 15:06:17.199048,-591.42
2026-06-16 15:06:17.214265,-531.75
2026-06-16 15:06:17.214265,-445.51
2026-06-16 15:06:17.230971,-373.63
2026-06-16 15:06:17.231935,-290.18
2026-06-16 15:06:17.246367,-143.46
2026-06-16 15:06:17.247201,-11.4
2026-06-16 15:06:17.262598,46.37
2026-06-16 15:06:17.265596,40.17
2026-06-16 15:06:17.278523,37.98
2026-06-16 15:06:17.280785,64.65
2026-06-16 15:06:17.280785,106.12
2026-06-16 15:06:17.297672,50.86
2026-06-16 15:06:17.297672,-110.58
2026-06-16 15:06:17.314389,-263.26
2026-06-16 15:06:17.314389,-296.77
2026-06-16 15:06:17.330199,-255.48
2026-06-16 15:06:17.330199,-277.09
2026-06-16 15:06:17.347396,-374.21
2026-06-16 15:06:17.347396,-490.74
2026-06-16 15:06:17.363171,-583.81
2026-06-16 15:06:17.364174,-746.06
2026-06-16 15:06:17.378870,-976.16
2026-06-16 15:06:17.381544,-1148.39
2026-06-16 15:06:17.395739,-1213.29
2026-06-16 15:06:17.398514,-1285.83
2026-06-16 15:06:17.398514,-1426.66
2026-06-16 15:06:17.414719,-1560.82
2026-06-16 15:06:17.414719,-1606.74
2026-06-16 15:06:17.431214,-1606.67
2026-06-16 15:06:17.431214,-1703.11
2026-06-16 15:06:17.447492,-2016.97
2026-06-16 15:06:17.447492,-2394.94
2026-06-16 15:06:17.464760,-2630.72
2026-06-16 15:06:17.464760,-2653.39
2026-06-16 15:06:17.480799,-2480.92
2026-06-16 15:06:17.481544,-2235.68
2026-06-16 15:06:17.496848,-2044.41
2026-06-16 15:06:17.498802,-1955.58
2026-06-16 15:06:17.512336,-2003.52
2026-06-16 15:06:17.515754,-2203.44
2026-06-16 15:06:17.523501,-2325.76
2026-06-16 15:06:17.534797,-2253.43
2026-06-16 15:06:17.534797,-2155.6
2026-06-16 15:06:17.546574,-2095.07
2026-06-16 15:06:17.546574,-2018.93
2026-06-16 15:06:17.564671,-1965.05
2026-06-16 15:06:17.564671,-1927.37
2026-06-16 15:06:17.581223,-1909.77
2026-06-16 15:06:17.581223,-1901.22
2026-06-16 15:06:17.597975,-1854.89
2026-06-16 15:06:17.597975,-1784.93
2026-06-16 15:06:17.614169,-1674.51
2026-06-16 15:06:17.615172,-1474.1
2026-06-16 15:06:17.628945,-1234.9
2026-06-16 15:06:17.631867,-1114.3
2026-06-16 15:06:17.645866,-1108.73
2026-06-16 15:06:17.648909,-1090.25
2026-06-16 15:06:17.648909,-982.31
2026-06-16 15:06:17.663774,-813.23
2026-06-16 15:06:17.663774,-662.89
2026-06-16 15:06:17.680589,-548.14
2026-06-16 15:06:17.680589,-429.98
2026-06-16 15:06:17.697417,-329.32
2026-06-16 15:06:17.697417,-251.06
2026-06-16 15:06:17.714603,-220.95
2026-06-16 15:06:17.714603,-230.79
2026-06-16 15:06:17.730906,-195.81
2026-06-16 15:06:17.731245,-141.1
2026-06-16 15:06:17.746520,-80.69
2026-06-16 15:06:17.748364,45.08
2026-06-16 15:06:17.762271,256.79
2026-06-16 15:06:17.764901,426.65
2026-06-16 15:06:17.778458,521.03
2026-06-16 15:06:17.781201,567.18
2026-06-16 15:06:17.781201,630.01
2026-06-16 15:06:17.797855,701.49
2026-06-16 15:06:17.797855,706.93
2026-06-16 15:06:17.816168,646.68
2026-06-16 15:06:17.821501,634.5
2026-06-16 15:06:17.831610,681.07
2026-06-16 15:06:17.831610,763.24
2026-06-16 15:06:17.848238,894.74
2026-06-16 15:06:17.853622,973.85
2026-06-16 15:06:17.863221,903.31
2026-06-16 15:06:17.867759,790.34
2026-06-16 15:06:17.879280,723.7
2026-06-16 15:06:17.879782,657.4
2026-06-16 15:06:17.895635,562.57
2026-06-16 15:06:17.898252,393.59
2026-06-16 15:06:17.898252,245.36
2026-06-16 15:06:17.913958,181.45
2026-06-16 15:06:17.913958,192.48
2026-06-16 15:06:17.931403,223.36
2026-06-16 15:06:17.931403,154.58
2026-06-16 15:06:17.947519,-80.02
2026-06-16 15:06:17.947519,-448.76
2026-06-16 15:06:17.964739,-712.18
2026-06-16 15:06:17.964739,-803.15
2026-06-16 15:06:17.980754,-872.76
2026-06-16 15:06:17.981430,-1020.63
2026-06-16 15:06:17.996397,-1257.31
2026-06-16 15:06:17.997834,-1300.78
2026-06-16 15:06:18.012189,-1279.35
2026-06-16 15:06:18.014928,-1655.03
2026-06-16 15:06:18.028467,-2166.15
2026-06-16 15:06:18.035465,-2337.4
2026-06-16 15:06:18.041928,-1947.61
2026-06-16 15:06:18.049395,-1270.23
2026-06-16 15:06:18.049395,-1011.15
2026-06-16 15:06:18.064330,-1039.92
2026-06-16 15:06:18.064330,-1003.88
2026-06-16 15:06:18.081512,-1367.01
2026-06-16 15:06:18.081512,-2399.95
2026-06-16 15:06:18.097587,-3824.73
2026-06-16 15:06:18.098464,-4458.33
2026-06-16 15:06:18.114141,-4248.98
2026-06-16 15:06:18.115054,-4355.09
2026-06-16 15:06:18.129901,-3663.68
2026-06-16 15:06:18.131716,-796.68
2026-06-16 15:06:18.145646,3014.18
2026-06-16 15:06:18.148557,4665.73
2026-06-16 15:06:18.148557,2533.0
2026-06-16 15:06:18.163750,-1176.09
2026-06-16 15:06:18.163750,-3381.1
2026-06-16 15:06:18.181026,-3236.83
2026-06-16 15:06:18.181026,-2266.44
2026-06-16 15:06:18.197698,-1417.32
2026-06-16 15:06:18.197698,-465.98
2026-06-16 15:06:18.241949,33.85
2026-06-16 15:06:18.241949,216.76
2026-06-16 15:06:18.241949,378.86
2026-06-16 15:06:18.241949,29.71
2026-06-16 15:06:18.246522,-438.09
2026-06-16 15:06:18.255537,-530.42
2026-06-16 15:06:18.261317,-311.86
2026-06-16 15:06:18.263490,175.26
2026-06-16 15:06:18.263490,730.59
2026-06-16 15:06:18.279909,1107.03
2026-06-16 15:06:18.279909,1339.3
2026-06-16 15:06:18.296487,1425.14
2026-06-16 15:06:18.296487,1380.2
2026-06-16 15:06:18.313132,1494.69
2026-06-16 15:06:18.313132,1760.84
2026-06-16 15:06:18.329867,2014.72
2026-06-16 15:06:18.329867,2210.61
2026-06-16 15:06:18.346419,2367.71
2026-06-16 15:06:18.346419,2625.52
2026-06-16 15:06:18.362950,2948.7
2026-06-16 15:06:18.362950,3259.32
2026-06-16 15:06:18.379187,3489.78
2026-06-16 15:06:18.380086,3537.01
2026-06-16 15:06:18.394815,3454.65
2026-06-16 15:06:18.396827,3350.81
2026-06-16 15:06:18.411580,3331.07
2026-06-16 15:06:18.414392,3322.38
2026-06-16 15:06:18.414392,3314.72
2026-06-16 15:06:18.430857,3311.08
2026-06-16 15:06:18.430857,3256.72
2026-06-16 15:06:18.447343,3176.75
2026-06-16 15:06:18.447343,3080.27
2026-06-16 15:06:18.464532,2984.28
2026-06-16 15:06:18.464532,2976.32
2026-06-16 15:06:18.480798,3049.0
2026-06-16 15:06:18.481468,3087.48
2026-06-16 15:06:18.496353,3040.21
2026-06-16 15:06:18.498332,2915.56
2026-06-16 15:06:18.512013,2792.52
2026-06-16 15:06:18.514662,2677.07
2026-06-16 15:06:18.528536,2572.15
2026-06-16 15:06:18.531950,2476.7
2026-06-16 15:06:18.531950,2400.64
2026-06-16 15:06:18.550651,2306.05
2026-06-16 15:06:18.555944,2123.38
2026-06-16 15:06:18.564626,1932.67
2026-06-16 15:06:18.564626,1832.46
2026-06-16 15:06:18.580513,1816.33
2026-06-16 15:06:18.580513,1740.58
2026-06-16 15:06:18.597981,1608.5
2026-06-16 15:06:18.603358,1564.64
2026-06-16 15:06:18.613979,1638.41
2026-06-16 15:06:18.614497,1748.62
2026-06-16 15:06:18.628881,1812.51
2026-06-16 15:06:18.631496,1780.56
2026-06-16 15:06:18.645275,1722.9
2026-06-16 15:06:18.647948,1727.22
2026-06-16 15:06:18.661476,1747.44
2026-06-16 15:06:18.664284,1707.86
2026-06-16 15:06:18.664284,1698.33
2026-06-16 15:06:18.679971,1750.53
2026-06-16 15:06:18.679971,1811.43
2026-06-16 15:06:18.698123,1768.54
2026-06-16 15:06:18.698123,1622.39
2026-06-16 15:06:18.714840,1547.61
2026-06-16 15:06:18.714840,1617.48
2026-06-16 15:06:18.730742,1651.19
2026-06-16 15:06:18.736850,1436.96
2026-06-16 15:06:18.746393,1138.25
2026-06-16 15:06:18.748494,981.31
2026-06-16 15:06:18.761850,1013.22
2026-06-16 15:06:18.764880,1044.97
2026-06-16 15:06:18.778110,908.41
2026-06-16 15:06:18.780459,699.89
2026-06-16 15:06:18.780459,554.1
2026-06-16 15:06:18.797405,522.48
2026-06-16 15:06:18.797405,558.67
2026-06-16 15:06:18.814833,546.92
2026-06-16 15:06:18.818577,458.62
2026-06-16 15:06:18.830418,356.83
2026-06-16 15:06:18.830418,344.1
2026-06-16 15:06:18.847756,373.22
2026-06-16 15:06:18.847756,318.62
2026-06-16 15:06:18.863810,195.64
2026-06-16 15:06:18.864761,89.19
2026-06-16 15:06:18.879660,78.79
2026-06-16 15:06:18.881651,39.59
2026-06-16 15:06:18.895309,-108.86
2026-06-16 15:06:18.898333,-262.54
2026-06-16 15:06:18.898333,-294.06
2026-06-16 15:06:18.913057,-256.77
2026-06-16 15:06:18.913057,-296.28
2026-06-16 15:06:18.930759,-439.08
2026-06-16 15:06:18.930759,-565.24
2026-06-16 15:06:18.947844,-558.43
2026-06-16 15:06:18.947844,-439.22
2026-06-16 15:06:18.964284,-360.41
2026-06-16 15:06:18.964284,-447.16
2026-06-16 15:06:18.980600,-588.21
2026-06-16 15:06:18.981144,-635.02
2026-06-16 15:06:18.996163,-590.05
2026-06-16 15:06:18.997779,-575.16
2026-06-16 15:06:19.011876,-626.02
2026-06-16 15:06:19.014853,-703.48
2026-06-16 15:06:19.028452,-709.91
2026-06-16 15:06:19.031329,-657.61
2026-06-16 15:06:19.031329,-599.6
2026-06-16 15:06:19.048170,-582.67
2026-06-16 15:06:19.048170,-555.88
2026-06-16 15:06:19.064865,-523.25
2026-06-16 15:06:19.070423,-502.72
2026-06-16 15:06:19.080512,-459.41
2026-06-16 15:06:19.080512,-410.35
2026-06-16 15:06:19.096713,-436.16
2026-06-16 15:06:19.096713,-588.2
2026-06-16 15:06:19.113545,-727.55
2026-06-16 15:06:19.113886,-734.85
2026-06-16 15:06:19.129452,-646.6
2026-06-16 15:06:19.131126,-540.89
2026-06-16 15:06:19.145231,-426.74
2026-06-16 15:06:19.148251,-338.04
2026-06-16 15:06:19.161440,-350.28
2026-06-16 15:06:19.164441,-497.78
2026-06-16 15:06:19.164441,-610.71
2026-06-16 15:06:19.180762,-554.92
2026-06-16 15:06:19.180762,-440.71
2026-06-16 15:06:19.197295,-462.38
2026-06-16 15:06:19.197295,-555.59
2026-06-16 15:06:19.213943,-543.86
2026-06-16 15:06:19.213943,-464.53
2026-06-16 15:06:19.230884,-400.51
2026-06-16 15:06:19.236099,-363.69
2026-06-16 15:06:19.246106,-319.08
2026-06-16 15:06:19.249427,-291.62
2026-06-16 15:06:19.262703,-303.09
2026-06-16 15:06:19.266335,-340.38
2026-06-16 15:06:19.278443,-355.6
2026-06-16 15:06:19.280488,-358.79
2026-06-16 15:06:19.280488,-367.94
2026-06-16 15:06:19.296458,-387.99
2026-06-16 15:06:19.296458,-355.21
2026-06-16 15:06:19.312878,-280.8
2026-06-16 15:06:19.312878,-242.58
2026-06-16 15:06:19.330092,-294.1
2026-06-16 15:06:19.330092,-371.24
2026-06-16 15:06:19.346617,-359.43
2026-06-16 15:06:19.351767,-255.15
2026-06-16 15:06:19.363707,-175.27
2026-06-16 15:06:19.364345,-253.0
2026-06-16 15:06:19.379375,-427.85
2026-06-16 15:06:19.380314,-553.07
2026-06-16 15:06:19.395072,-551.3
2026-06-16 15:06:19.397499,-501.77
2026-06-16 15:06:19.411312,-473.4
2026-06-16 15:06:19.413713,-460.08
2026-06-16 15:06:19.413713,-426.94
2026-06-16 15:06:19.429494,-399.93
2026-06-16 15:06:19.429494,-439.72
2026-06-16 15:06:19.448873,-501.2
2026-06-16 15:06:19.448873,-490.73
2026-06-16 15:06:19.464010,-433.56
2026-06-16 15:06:19.464010,-452.28
2026-06-16 15:06:19.480269,-525.64
2026-06-16 15:06:19.480269,-552.86
2026-06-16 15:06:19.496073,-505.32
2026-06-16 15:06:19.498007,-453.05
2026-06-16 15:06:19.511824,-459.74
2026-06-16 15:06:19.515355,-475.35
2026-06-16 15:06:19.528492,-394.37
2026-06-16 15:06:19.531520,-296.87
2026-06-16 15:06:19.531520,-285.44
2026-06-16 15:06:19.549008,-328.79
2026-06-16 15:06:19.549008,-329.13
2026-06-16 15:06:19.564592,-270.77
2026-06-16 15:06:19.564592,-232.6
2026-06-16 15:06:19.580917,-244.38
2026-06-16 15:06:19.585609,-258.08
2026-06-16 15:06:19.596313,-230.92
2026-06-16 15:06:19.596313,-251.65
2026-06-16 15:06:19.613522,-354.87
2026-06-16 15:06:19.613522,-399.86
2026-06-16 15:06:19.629139,-332.19
2026-06-16 15:06:19.630052,-246.95
2026-06-16 15:06:19.645011,-206.91
2026-06-16 15:06:19.649276,-220.8
2026-06-16 15:06:19.661155,-205.77
2026-06-16 15:06:19.663860,-181.85
2026-06-16 15:06:19.663860,-208.81
2026-06-16 15:06:19.680537,-269.45
2026-06-16 15:06:19.680537,-272.08
2026-06-16 15:06:19.696869,-214.01
2026-06-16 15:06:19.696869,-184.08
2026-06-16 15:06:19.714244,-202.07
2026-06-16 15:06:19.714244,-231.9
2026-06-16 15:06:19.730467,-270.54
2026-06-16 15:06:19.730467,-323.92
2026-06-16 15:06:19.746749,-337.22
2026-06-16 15:06:19.749348,-273.85
2026-06-16 15:06:19.762673,-173.97
2026-06-16 15:06:19.764725,-170.12
2026-06-16 15:06:19.778280,-252.85
2026-06-16 15:06:19.781200,-320.24
2026-06-16 15:06:19.781200,-304.71
2026-06-16 15:06:19.796490,-243.48
2026-06-16 15:06:19.796490,-251.22
2026-06-16 15:06:19.812667,-310.66
2026-06-16 15:06:19.812667,-364.82
2026-06-16 15:06:19.829902,-402.8
2026-06-16 15:06:19.829902,-446.56
2026-06-16 15:06:19.846443,-462.23
2026-06-16 15:06:19.849683,-430.07
2026-06-16 15:06:19.863607,-376.18
2026-06-16 15:06:19.868249,-355.4
2026-06-16 15:06:19.879294,-373.52
2026-06-16 15:06:19.879294,-411.45
2026-06-16 15:06:19.894352,-377.55
2026-06-16 15:06:19.896075,-325.92
2026-06-16 15:06:19.896075,-324.29
2026-06-16 15:06:19.912834,-347.54
2026-06-16 15:06:19.912834,-344.81
2026-06-16 15:06:19.929312,-318.21
2026-06-16 15:06:19.929312,-301.69
2026-06-16 15:06:19.946258,-256.4
2026-06-16 15:06:19.949744,-141.69
2026-06-16 15:06:19.962553,-89.24
2026-06-16 15:06:19.962553,-237.05
2026-06-16 15:06:19.979718,-467.7
2026-06-16 15:06:19.979718,-543.97
2026-06-16 15:06:19.996133,-376.08
2026-06-16 15:06:19.997109,-190.12
2026-06-16 15:06:20.011846,-173.25
2026-06-16 15:06:20.012351,-242.04
2026-06-16 15:06:20.028082,-218.94
2026-06-16 15:06:20.030088,-148.19
2026-06-16 15:06:20.030088,-163.37
2026-06-16 15:06:20.049722,-253.1
2026-06-16 15:06:20.049722,-310.54
2026-06-16 15:06:20.062922,-314.96
2026-06-16 15:06:20.062922,-287.51
2026-06-16 15:06:20.080270,-275.13
2026-06-16 15:06:20.080270,-259.82
2026-06-16 15:06:20.096865,-197.83
2026-06-16 15:06:20.100911,-162.01
2026-06-16 15:06:20.112829,-165.18
2026-06-16 15:06:20.113779,-178.29
2026-06-16 15:06:20.129183,-165.46
2026-06-16 15:06:20.130674,-161.65
2026-06-16 15:06:20.145025,-170.79
2026-06-16 15:06:20.149917,-167.94
2026-06-16 15:06:20.161166,-169.09
2026-06-16 15:06:20.164212,-183.17
2026-06-16 15:06:20.164212,-193.2
2026-06-16 15:06:20.182656,-188.26
2026-06-16 15:06:20.182656,-131.59
2026-06-16 15:06:20.196341,-67.26
2026-06-16 15:06:20.196341,-81.85
2026-06-16 15:06:20.213363,-141.14
2026-06-16 15:06:20.213363,-196.15
2026-06-16 15:06:20.229865,-213.08
2026-06-16 15:06:20.229865,-235.89
2026-06-16 15:06:20.245701,-278.49
2026-06-16 15:06:20.250168,-341.78
2026-06-16 15:06:20.262514,-406.73
2026-06-16 15:06:20.266504,-437.53
2026-06-16 15:06:20.278130,-433.36
2026-06-16 15:06:20.280170,-409.3
2026-06-16 15:06:20.280170,-351.53
2026-06-16 15:06:20.296150,-282.12
2026-06-16 15:06:20.296150,-225.98
2026-06-16 15:06:20.312767,-195.0
2026-06-16 15:06:20.312767,-200.0
2026-06-16 15:06:20.329272,-199.0
2026-06-16 15:06:20.329272,-154.22
2026-06-16 15:06:20.346349,-93.75
2026-06-16 15:06:20.350640,-95.27
2026-06-16 15:06:20.363394,-124.64
2026-06-16 15:06:20.363394,-159.84
2026-06-16 15:06:20.378958,-161.03
2026-06-16 15:06:20.380001,-139.33
2026-06-16 15:06:20.394695,-138.64
2026-06-16 15:06:20.397419,-168.79
2026-06-16 15:06:20.411079,-176.9
2026-06-16 15:06:20.413092,-156.11
2026-06-16 15:06:20.413092,-144.39
2026-06-16 15:06:20.429613,-151.63
2026-06-16 15:06:20.429613,-130.97
2026-06-16 15:06:20.447353,-69.62
2026-06-16 15:06:20.450772,-20.52
2026-06-16 15:06:20.464261,-21.41
2026-06-16 15:06:20.464261,-67.07
2026-06-16 15:06:20.479859,-73.7
2026-06-16 15:06:20.479859,-69.35
2026-06-16 15:06:20.496653,-102.83
2026-06-16 15:06:20.497200,-142.12
2026-06-16 15:06:20.512515,-142.41
2026-06-16 15:06:20.514387,-133.73
2026-06-16 15:06:20.528229,-156.94
2026-06-16 15:06:20.531155,-180.04
2026-06-16 15:06:20.531155,-123.42
2026-06-16 15:06:20.551043,-41.21
2026-06-16 15:06:20.551043,8.74
2026-06-16 15:06:20.563640,4.72
2026-06-16 15:06:20.563640,-36.1
2026-06-16 15:06:20.579568,-77.71
2026-06-16 15:06:20.579568,-121.1
2026-06-16 15:06:20.597049,-169.25
2026-06-16 15:06:20.602251,-225.12
2026-06-16 15:06:20.613717,-303.59
2026-06-16 15:06:20.621331,-368.74
2026-06-16 15:06:20.628940,-333.07
2026-06-16 15:06:20.629914,-217.97
2026-06-16 15:06:20.644618,-135.29
2026-06-16 15:06:20.651271,-154.51
2026-06-16 15:06:20.661092,-189.56
2026-06-16 15:06:20.663733,-161.75
2026-06-16 15:06:20.663733,-71.39
2026-06-16 15:06:20.680240,6.58
2026-06-16 15:06:20.680240,21.47
2026-06-16 15:06:20.697278,11.41
2026-06-16 15:06:20.697278,-7.55
2026-06-16 15:06:20.713886,-25.42
2026-06-16 15:06:20.713886,-53.16
2026-06-16 15:06:20.730826,-94.68
2026-06-16 15:06:20.736054,-137.99
2026-06-16 15:06:20.746459,-157.2
2026-06-16 15:06:20.751563,-165.37
2026-06-16 15:06:20.762226,-168.52
2026-06-16 15:06:20.764204,-152.75
2026-06-16 15:06:20.778071,-121.14
2026-06-16 15:06:20.781021,-91.68
2026-06-16 15:06:20.794324,-85.25
2026-06-16 15:06:20.797345,-115.67
2026-06-16 15:06:20.797345,-146.93
2026-06-16 15:06:20.813650,-129.28
2026-06-16 15:06:20.813650,-87.84
2026-06-16 15:06:20.830521,-95.36
2026-06-16 15:06:20.830521,-169.51
2026-06-16 15:06:20.847512,-247.27
2026-06-16 15:06:20.851627,-253.0
2026-06-16 15:06:20.862664,-188.05
2026-06-16 15:06:20.862664,-146.32
2026-06-16 15:06:20.878780,-148.57
2026-06-16 15:06:20.884995,-160.76
2026-06-16 15:06:20.894463,-163.94
2026-06-16 15:06:20.896889,-190.98
2026-06-16 15:06:20.911116,-218.88
2026-06-16 15:06:20.919044,-210.82
2026-06-16 15:06:20.919044,-187.88
2026-06-16 15:06:20.930463,-149.13
2026-06-16 15:06:20.930463,-124.5
2026-06-16 15:06:20.946502,-92.04
2026-06-16 15:06:20.952314,-28.89
2026-06-16 15:06:20.963154,-16.81
2026-06-16 15:06:20.963154,-149.06
2026-06-16 15:06:20.979490,-360.25
2026-06-16 15:06:20.979490,-480.83
2026-06-16 15:06:20.996257,-397.83
2026-06-16 15:06:20.996257,-213.76
2026-06-16 15:06:21.012136,-88.32
2026-06-16 15:06:21.017299,-106.78
2026-06-16 15:06:21.028035,-158.98
2026-06-16 15:06:21.031067,-146.25
2026-06-16 15:06:21.044172,-144.52
2026-06-16 15:06:21.046697,-171.66
2026-06-16 15:06:21.052445,-218.56
2026-06-16 15:06:21.063592,-249.31
2026-06-16 15:06:21.063592,-221.19
2026-06-16 15:06:21.079590,-140.49
2026-06-16 15:06:21.079590,-70.14
2026-06-16 15:06:21.097178,-52.87
2026-06-16 15:06:21.102563,-90.42
2026-06-16 15:06:21.113275,-116.83
2026-06-16 15:06:21.121998,-117.24
2026-06-16 15:06:21.128906,-71.88
2026-06-16 15:06:21.136353,-37.69
2026-06-16 15:06:21.144453,-27.55
2026-06-16 15:06:21.152704,-54.28
2026-06-16 15:06:21.160865,-97.79
2026-06-16 15:06:21.162878,-113.22
2026-06-16 15:06:21.162878,-88.77
2026-06-16 15:06:21.179772,-62.46
2026-06-16 15:06:21.179772,-59.16
2026-06-16 15:06:21.195943,-66.82
2026-06-16 15:06:21.195943,-46.59
2026-06-16 15:06:21.213705,-0.59
2026-06-16 15:06:21.218913,14.34
2026-06-16 15:06:21.230337,-7.62
2026-06-16 15:06:21.235574,-32.46
2026-06-16 15:06:21.246394,-14.39
2026-06-16 15:06:21.253348,-21.28
2026-06-16 15:06:21.262158,-77.89
2026-06-16 15:06:21.268968,-158.09
2026-06-16 15:06:21.277371,-194.12
2026-06-16 15:06:21.279324,-190.16
2026-06-16 15:06:21.279324,-195.18
2026-06-16 15:06:21.295905,-217.09
2026-06-16 15:06:21.295905,-205.06
2026-06-16 15:06:21.312122,-156.27
2026-06-16 15:06:21.312122,-125.64
2026-06-16 15:06:21.329104,-128.0
2026-06-16 15:06:21.329104,-134.32
2026-06-16 15:06:21.345505,-135.64
2026-06-16 15:06:21.353836,-165.81
2026-06-16 15:06:21.362457,-197.82
2026-06-16 15:06:21.362457,-176.93
2026-06-16 15:06:21.379141,-111.37
2026-06-16 15:06:21.379141,-76.98
2026-06-16 15:06:21.394870,-97.49
2026-06-16 15:06:21.395695,-142.77
2026-06-16 15:06:21.410510,-192.8
2026-06-16 15:06:21.412222,-256.52
2026-06-16 15:06:21.412222,-296.03
2026-06-16 15:06:21.429284,-267.68
2026-06-16 15:06:21.429284,-189.73
2026-06-16 15:06:21.446550,-141.02
2026-06-16 15:06:21.453819,-129.37
2026-06-16 15:06:21.463711,-55.09
2026-06-16 15:06:21.463711,53.64
2026-06-16 15:06:21.480221,129.98
2026-06-16 15:06:21.480221,160.18
2026-06-16 15:06:21.495456,194.2
2026-06-16 15:06:21.495456,236.02
2026-06-16 15:06:21.511556,265.68
2026-06-16 15:06:21.512903,219.58
2026-06-16 15:06:21.527393,165.75
2026-06-16 15:06:21.529942,176.86
2026-06-16 15:06:21.543979,171.99
2026-06-16 15:06:21.547372,102.48
2026-06-16 15:06:21.554373,-28.38
2026-06-16 15:06:21.563712,-258.08
2026-06-16 15:06:21.563712,-548.33
2026-06-16 15:06:21.580195,-850.06
2026-06-16 15:06:21.580195,-1123.41
2026-06-16 15:06:21.596243,-1287.94
2026-06-16 15:06:21.596243,-1301.4
2026-06-16 15:06:21.612834,-1155.59
2026-06-16 15:06:21.612834,-944.84
2026-06-16 15:06:21.629697,-713.26
2026-06-16 15:06:21.637117,-553.48
2026-06-16 15:06:21.644901,-448.23
2026-06-16 15:06:21.650162,-347.48
2026-06-16 15:06:21.660988,-236.29
2026-06-16 15:06:21.663461,-82.88
2026-06-16 15:06:21.663461,82.71
2026-06-16 15:06:21.679744,183.79
2026-06-16 15:06:21.679744,232.62
2026-06-16 15:06:21.697119,281.2
2026-06-16 15:06:21.697119,360.39
2026-06-16 15:06:21.713403,475.01
2026-06-16 15:06:21.713403,577.1
2026-06-16 15:06:21.730418,598.1
2026-06-16 15:06:21.730418,511.53
2026-06-16 15:06:21.746114,397.53
2026-06-16 15:06:21.746114,319.92
2026-06-16 15:06:21.761948,300.41
2026-06-16 15:06:21.763672,274.04
2026-06-16 15:06:21.777700,144.31
2026-06-16 15:06:21.780454,-106.15
2026-06-16 15:06:21.793892,-377.26
2026-06-16 15:06:21.796669,-557.46
2026-06-16 15:06:21.796669,-581.54
2026-06-16 15:06:21.813533,-519.92
2026-06-16 15:06:21.813533,-493.44
2026-06-16 15:06:21.829475,-467.1
2026-06-16 15:06:21.829475,-335.41
2026-06-16 15:06:21.846835,-111.85
2026-06-16 15:06:21.855610,26.02
2026-06-16 15:06:21.862939,20.92
2026-06-16 15:06:21.868969,-56.8
2026-06-16 15:06:21.878842,-80.39
2026-06-16 15:06:21.881764,-8.35
2026-06-16 15:06:21.894235,114.07
2026-06-16 15:06:21.896249,236.88
2026-06-16 15:06:21.911094,375.0
2026-06-16 15:06:21.913861,475.61
2026-06-16 15:06:21.913861,503.08
2026-06-16 15:06:21.929882,497.58
2026-06-16 15:06:21.929882,518.97
2026-06-16 15:06:21.946807,532.3
2026-06-16 15:06:21.956394,462.97
2026-06-16 15:06:21.964069,378.07
2026-06-16 15:06:21.967023,364.24
2026-06-16 15:06:21.980233,435.05
2026-06-16 15:06:21.980233,539.34
2026-06-16 15:06:21.996351,633.16
2026-06-16 15:06:21.997350,622.04
2026-06-16 15:06:22.011618,465.7
2026-06-16 15:06:22.012897,234.52
2026-06-16 15:06:22.027812,155.74
2026-06-16 15:06:22.030582,269.38
2026-06-16 15:06:22.043770,410.32
2026-06-16 15:06:22.046785,420.21
2026-06-16 15:06:22.056691,323.58
2026-06-16 15:06:22.062476,260.27
2026-06-16 15:06:22.062476,244.05
2026-06-16 15:06:22.079787,163.23
2026-06-16 15:06:22.079787,46.0
2026-06-16 15:06:22.096110,-1.0
2026-06-16 15:06:22.096110,45.77
2026-06-16 15:06:22.114378,136.09
2026-06-16 15:06:22.114378,117.5
2026-06-16 15:06:22.128616,13.43
2026-06-16 15:06:22.129566,-56.29
2026-06-16 15:06:22.145220,-38.1
2026-06-16 15:06:22.151397,-25.97
2026-06-16 15:06:22.160649,-71.61
2026-06-16 15:06:22.165960,-87.17
2026-06-16 15:06:22.165960,-43.95
2026-06-16 15:06:22.179028,11.0
2026-06-16 15:06:22.179028,29.85
2026-06-16 15:06:22.196221,2.83
2026-06-16 15:06:22.196221,-9.12
2026-06-16 15:06:22.212708,4.86
2026-06-16 15:06:22.212708,8.81
2026-06-16 15:06:22.229912,30.66
2026-06-16 15:06:22.229912,49.41
2026-06-16 15:06:22.246457,67.07
2026-06-16 15:06:22.246457,41.86
2026-06-16 15:06:22.261454,-21.03
2026-06-16 15:06:22.263202,-92.57
2026-06-16 15:06:22.277389,-135.88
2026-06-16 15:06:22.279503,-109.34
2026-06-16 15:06:22.279503,-62.02
2026-06-16 15:06:22.295644,-71.66
2026-06-16 15:06:22.295644,-120.06
2026-06-16 15:06:22.312214,-142.34
2026-06-16 15:06:22.312214,-82.93
2026-06-16 15:06:22.328433,-5.9
2026-06-16 15:06:22.328433,-0.89
2026-06-16 15:06:22.345676,-34.72
2026-06-16 15:06:22.345676,-45.49
2026-06-16 15:06:22.362011,43.29
2026-06-16 15:06:22.362011,132.63
2026-06-16 15:06:22.378661,153.85
2026-06-16 15:06:22.378661,142.14
2026-06-16 15:06:22.394610,111.58
2026-06-16 15:06:22.396001,81.17
2026-06-16 15:06:22.410266,74.79
2026-06-16 15:06:22.412230,88.35
2026-06-16 15:06:22.412230,126.71
2026-06-16 15:06:22.428887,114.14
2026-06-16 15:06:22.428887,40.93
2026-06-16 15:06:22.445454,-21.96
2026-06-16 15:06:22.445454,-25.83
2026-06-16 15:06:22.461877,25.05
2026-06-16 15:06:22.461877,47.81
2026-06-16 15:06:22.478532,62.49
2026-06-16 15:06:22.478532,82.08
2026-06-16 15:06:22.495461,94.61
2026-06-16 15:06:22.495461,106.07
2026-06-16 15:06:22.511397,109.52
2026-06-16 15:06:22.512329,111.96
2026-06-16 15:06:22.526852,106.42
2026-06-16 15:06:22.528610,50.17
2026-06-16 15:06:22.528610,-31.67
2026-06-16 15:06:22.545063,-101.16
2026-06-16 15:06:22.557595,-121.55
2026-06-16 15:06:22.562253,-77.16
2026-06-16 15:06:22.562253,-16.08
2026-06-16 15:06:22.579113,42.7
2026-06-16 15:06:22.579113,69.36
2026-06-16 15:06:22.598183,98.86
2026-06-16 15:06:22.600577,101.35
2026-06-16 15:06:22.611963,61.04
2026-06-16 15:06:22.611963,6.01
2026-06-16 15:06:22.628934,-26.85
2026-06-16 15:06:22.628934,-49.6
2026-06-16 15:06:22.644649,-71.24
2026-06-16 15:06:22.652291,-110.69
2026-06-16 15:06:22.660097,-115.11
2026-06-16 15:06:22.666998,-87.67
2026-06-16 15:06:22.675867,-73.3
2026-06-16 15:06:22.678720,-103.78
2026-06-16 15:06:22.678720,-162.96
2026-06-16 15:06:22.696161,-213.89
2026-06-16 15:06:22.696161,-275.5
2026-06-16 15:06:22.711799,-336.81
2026-06-16 15:06:22.711799,-385.87
2026-06-16 15:06:22.729003,-404.84
2026-06-16 15:06:22.729003,-377.94
2026-06-16 15:06:22.745490,-336.25
2026-06-16 15:06:22.745490,-292.78
2026-06-16 15:06:22.761317,-221.66
2026-06-16 15:06:22.763045,-154.88
2026-06-16 15:06:22.777336,-101.37
2026-06-16 15:06:22.780228,-86.94
2026-06-16 15:06:22.793962,-62.62
2026-06-16 15:06:22.796660,6.35
2026-06-16 15:06:22.796660,71.98
2026-06-16 15:06:22.812680,122.37
2026-06-16 15:06:22.812680,141.66
2026-06-16 15:06:22.829938,124.03
2026-06-16 15:06:22.829938,76.65
2026-06-16 15:06:22.846405,27.51
2026-06-16 15:06:22.846405,0.51
2026-06-16 15:06:22.863056,6.48
2026-06-16 15:06:22.863056,-22.41
2026-06-16 15:06:22.879408,-78.02
2026-06-16 15:06:22.880146,-96.53
2026-06-16 15:06:22.894856,-28.39
2026-06-16 15:06:22.896629,30.45
2026-06-16 15:06:22.910676,70.1
2026-06-16 15:06:22.913410,122.49
2026-06-16 15:06:22.913410,179.58
2026-06-16 15:06:22.930083,255.3
2026-06-16 15:06:22.930083,315.72
2026-06-16 15:06:22.946628,349.96
2026-06-16 15:06:22.946628,419.85
2026-06-16 15:06:22.963302,526.2
2026-06-16 15:06:22.963302,519.59
2026-06-16 15:06:22.979143,329.93
2026-06-16 15:06:22.979143,84.51
2026-06-16 15:06:22.996028,0.51
2026-06-16 15:06:22.996028,98.01
2026-06-16 15:06:23.012636,248.76
2026-06-16 15:06:23.014160,280.36
2026-06-16 15:06:23.027151,254.08
2026-06-16 15:06:23.029548,260.77
2026-06-16 15:06:23.043445,266.43
2026-06-16 15:06:23.047506,270.07
2026-06-16 15:06:23.058376,289.62
2026-06-16 15:06:23.062159,300.11
2026-06-16 15:06:23.069335,266.77
2026-06-16 15:06:23.079313,217.67
2026-06-16 15:06:23.089866,202.66
2026-06-16 15:06:23.095684,225.52
2026-06-16 15:06:23.095684,245.29
2026-06-16 15:06:23.113576,256.0
2026-06-16 15:06:23.113576,273.63
2026-06-16 15:06:23.129478,321.02
2026-06-16 15:06:23.130490,358.22
2026-06-16 15:06:23.144849,357.42
2026-06-16 15:06:23.145805,337.72
2026-06-16 15:06:23.160158,371.85
2026-06-16 15:06:23.162218,445.61
2026-06-16 15:06:23.162218,489.16
2026-06-16 15:06:23.179289,504.62
2026-06-16 15:06:23.190956,503.09
2026-06-16 15:06:23.195794,478.69
2026-06-16 15:06:23.195794,422.56
2026-06-16 15:06:23.212271,335.88
2026-06-16 15:06:23.212271,252.61
2026-06-16 15:06:23.229130,213.53
2026-06-16 15:06:23.229130,191.57
2026-06-16 15:06:23.246413,177.68
2026-06-16 15:06:23.246413,135.99
2026-06-16 15:06:23.262218,70.64
2026-06-16 15:06:23.264988,-2.35
2026-06-16 15:06:23.277084,-26.22
2026-06-16 15:06:23.279501,-4.2
2026-06-16 15:06:23.293729,-17.11
2026-06-16 15:06:23.295782,-63.79
2026-06-16 15:06:23.295782,-102.28
2026-06-16 15:06:23.312031,-119.67
2026-06-16 15:06:23.312031,-125.05
2026-06-16 15:06:23.328307,-136.36
2026-06-16 15:06:23.328307,-153.59
2026-06-16 15:06:23.347678,-151.83
2026-06-16 15:06:23.355699,-150.07
2026-06-16 15:06:23.362211,-123.45
2026-06-16 15:06:23.362211,-110.89
2026-06-16 15:06:23.379042,-90.44
2026-06-16 15:06:23.384549,-62.13
2026-06-16 15:06:23.394692,-46.89
2026-06-16 15:06:23.395242,-35.71
2026-06-16 15:06:23.410424,-41.5
2026-06-16 15:06:23.414737,-62.19
2026-06-16 15:06:23.414737,-76.81
2026-06-16 15:06:23.428966,-93.34
2026-06-16 15:06:23.428966,-98.84
2026-06-16 15:06:23.445516,-113.27
2026-06-16 15:06:23.445516,-135.59
2026-06-16 15:06:23.462898,-151.83
2026-06-16 15:06:23.462898,-155.05
2026-06-16 15:06:23.479002,-98.55
2026-06-16 15:06:23.479002,-35.37
2026-06-16 15:06:23.495639,3.61
2026-06-16 15:06:23.501795,-4.37
2026-06-16 15:06:23.511464,-9.32
2026-06-16 15:06:23.513136,16.59
2026-06-16 15:06:23.526970,46.36
2026-06-16 15:06:23.529971,56.08
2026-06-16 15:06:23.543560,33.91
2026-06-16 15:06:23.546372,-9.05
2026-06-16 15:06:23.546372,-19.95
2026-06-16 15:06:23.561894,-23.83
2026-06-16 15:06:23.561894,-31.67
2026-06-16 15:06:23.578885,-26.53
2026-06-16 15:06:23.578885,-1.53
2026-06-16 15:06:23.595954,41.27
2026-06-16 15:06:23.595954,51.01
2026-06-16 15:06:23.612681,41.8
2026-06-16 15:06:23.612681,25.67
2026-06-16 15:06:23.628923,44.45
2026-06-16 15:06:23.628923,80.05
2026-06-16 15:06:23.644598,71.69
2026-06-16 15:06:23.645997,65.36
2026-06-16 15:06:23.660273,67.02
2026-06-16 15:06:23.663549,47.78
2026-06-16 15:06:23.663549,-1.21
2026-06-16 15:06:23.679101,-52.95
2026-06-16 15:06:23.691584,-52.68
2026-06-16 15:06:23.698042,-17.59
2026-06-16 15:06:23.705239,1.4
2026-06-16 15:06:23.714958,29.25
2026-06-16 15:06:23.714958,79.85
2026-06-16 15:06:23.729531,180.94
2026-06-16 15:06:23.729531,233.77
2026-06-16 15:06:23.745823,197.77
2026-06-16 15:06:23.751056,129.12
2026-06-16 15:06:23.761263,107.58
2026-06-16 15:06:23.763220,149.83
2026-06-16 15:06:23.778006,173.96
2026-06-16 15:06:23.780001,112.39
2026-06-16 15:06:23.793879,33.22
2026-06-16 15:06:23.796750,-29.63
2026-06-16 15:06:23.796750,-69.28
2026-06-16 15:06:23.812906,-87.84
2026-06-16 15:06:23.812906,-94.36
2026-06-16 15:06:23.828787,-69.02
2026-06-16 15:06:23.828787,-56.73
2026-06-16 15:06:23.846709,-60.43
2026-06-16 15:06:23.851885,-67.09
2026-06-16 15:06:23.863128,-51.83
2026-06-16 15:06:23.863128,-31.67
2026-06-16 15:06:23.878925,-43.45
2026-06-16 15:06:23.879581,-60.15
2026-06-16 15:06:23.894657,-47.91
2026-06-16 15:06:23.896404,-7.87
2026-06-16 15:06:23.910362,136.44
2026-06-16 15:06:23.913397,263.12
2026-06-16 15:06:23.926710,161.31
2026-06-16 15:06:23.929534,-151.93
2026-06-16 15:06:23.929534,-400.91
2026-06-16 15:06:23.946202,-337.22
2026-06-16 15:06:23.946202,-99.72
2026-06-16 15:06:23.963018,43.07
2026-06-16 15:06:23.963018,1.06
2026-06-16 15:06:23.979804,-70.58
2026-06-16 15:06:23.979804,-66.25
2026-06-16 15:06:23.996360,-69.9
2026-06-16 15:06:23.996360,-130.24
2026-06-16 15:06:24.012362,-169.39
2026-06-16 15:06:24.013407,-145.66
2026-06-16 15:06:24.027901,-86.23
2026-06-16 15:06:24.029620,-96.74
2026-06-16 15:06:24.043775,-131.08
2026-06-16 15:06:24.048130,-91.62
2026-06-16 15:06:24.048130,-0.62
2026-06-16 15:06:24.062008,73.01
2026-06-16 15:06:24.062008,69.66
2026-06-16 15:06:24.079539,52.4
2026-06-16 15:06:24.079539,59.1
2026-06-16 15:06:24.095141,89.65
2026-06-16 15:06:24.095141,122.04
2026-06-16 15:06:24.112134,129.39
2026-06-16 15:06:24.112134,107.85
2026-06-16 15:06:24.128940,66.51
2026-06-16 15:06:24.129486,51.26
2026-06-16 15:06:24.144468,115.67
2026-06-16 15:06:24.145974,176.79
2026-06-16 15:06:24.160297,173.91
2026-06-16 15:06:24.163413,127.27
2026-06-16 15:06:24.176479,82.86
2026-06-16 15:06:24.178952,74.48
2026-06-16 15:06:24.178952,61.17
2026-06-16 15:06:24.195674,40.97
2026-06-16 15:06:24.206607,-10.98
2026-06-16 15:06:24.212971,-73.61
2026-06-16 15:06:24.218136,-104.08
2026-06-16 15:06:24.229545,-87.64
2026-06-16 15:06:24.229545,-81.23
2026-06-16 15:06:24.245768,-86.8
2026-06-16 15:06:24.245768,-124.17
2026-06-16 15:06:24.261670,-151.41
2026-06-16 15:06:24.263039,-191.45
2026-06-16 15:06:24.277834,-211.39
2026-06-16 15:06:24.279238,-180.48
2026-06-16 15:06:24.293563,-125.85
2026-06-16 15:06:24.295580,-106.32
2026-06-16 15:06:24.295580,-129.66
2026-06-16 15:06:24.312542,-150.91
2026-06-16 15:06:24.312542,-106.37
2026-06-16 15:06:24.328397,-13.3
2026-06-16 15:06:24.328397,41.49
2026-06-16 15:06:24.344830,0.49
2026-06-16 15:06:24.344830,-103.0
2026-06-16 15:06:24.361771,-169.15
2026-06-16 15:06:24.361771,-154.37
2026-06-16 15:06:24.378147,-67.03
2026-06-16 15:06:24.378147,-5.01
2026-06-16 15:06:24.394493,14.92
2026-06-16 15:06:24.395825,67.58
2026-06-16 15:06:24.410105,124.95
2026-06-16 15:06:24.412132,131.29
2026-06-16 15:06:24.412132,106.75
2026-06-16 15:06:24.428385,110.2
2026-06-16 15:06:24.428385,148.45
2026-06-16 15:06:24.444917,145.72
2026-06-16 15:06:24.444917,77.33
2026-06-16 15:06:24.461964,18.24
2026-06-16 15:06:24.461964,21.13
2026-06-16 15:06:24.479131,63.81
2026-06-16 15:06:24.479131,60.51
2026-06-16 15:06:24.495736,48.27
2026-06-16 15:06:24.495736,45.04
2026-06-16 15:06:24.512290,65.71
2026-06-16 15:06:24.513688,80.31
2026-06-16 15:06:24.527813,62.99
2026-06-16 15:06:24.529609,54.71
2026-06-16 15:06:24.543530,54.44
2026-06-16 15:06:24.546462,61.13
2026-06-16 15:06:24.546462,50.88
2026-06-16 15:06:24.562689,-10.07
2026-06-16 15:06:24.562689,-97.58
2026-06-16 15:06:24.578962,-128.93
2026-06-16 15:06:24.578962,-115.35
2026-06-16 15:06:24.595313,-82.94
2026-06-16 15:06:24.595313,-79.54
2026-06-16 15:06:24.612645,-93.07
2026-06-16 15:06:24.615225,-117.48
2026-06-16 15:06:24.629016,-84.06
2026-06-16 15:06:24.632008,-0.06
2026-06-16 15:06:24.644446,87.5
2026-06-16 15:06:24.645977,122.89
2026-06-16 15:06:24.660126,110.33
2026-06-16 15:06:24.663095,90.88
2026-06-16 15:06:24.676372,105.35
2026-06-16 15:06:24.679304,98.85
2026-06-16 15:06:24.679304,44.63
2026-06-16 15:06:24.695663,-4.35
2026-06-16 15:06:24.695663,3.63
2026-06-16 15:06:24.712591,48.39
2026-06-16 15:06:24.719394,68.04
2026-06-16 15:06:24.728364,86.61
2026-06-16 15:06:24.732248,134.93
2026-06-16 15:06:24.745329,184.01
2026-06-16 15:06:24.745329,180.1
2026-06-16 15:06:24.762218,122.49
2026-06-16 15:06:24.763125,68.14
2026-06-16 15:06:24.777868,62.83
2026-06-16 15:06:24.779817,68.48
2026-06-16 15:06:24.793631,57.2
2026-06-16 15:06:24.796456,47.95
2026-06-16 15:06:24.796456,44.73
2026-06-16 15:06:24.812782,-2.26
2026-06-16 15:06:24.812782,-103.74
2026-06-16 15:06:24.828606,-123.12
2026-06-16 15:06:24.828606,-63.8
2026-06-16 15:06:24.845905,11.15
2026-06-16 15:06:24.845905,41.93
2026-06-16 15:06:24.863052,115.36
2026-06-16 15:06:24.868212,263.03
2026-06-16 15:06:24.879443,342.31
2026-06-16 15:06:24.879443,205.28
2026-06-16 15:06:24.894437,-97.23
2026-06-16 15:06:24.896037,-310.67
2026-06-16 15:06:24.910093,-262.35
2026-06-16 15:06:24.913177,-90.89
2026-06-16 15:06:24.926528,29.96
2026-06-16 15:06:24.929590,63.64
2026-06-16 15:06:24.929590,67.3
2026-06-16 15:06:24.945025,83.88
2026-06-16 15:06:24.945025,72.51
2026-06-16 15:06:24.962700,53.24
2026-06-16 15:06:24.962700,65.91
2026-06-16 15:06:24.979126,116.33
2026-06-16 15:06:24.979126,147.59
2026-06-16 15:06:24.995802,138.89
2026-06-16 15:06:24.995802,135.21
2026-06-16 15:06:25.012096,145.48
2026-06-16 15:06:25.013026,136.79
2026-06-16 15:06:25.027490,105.26
2026-06-16 15:06:25.029292,52.0
2026-06-16 15:06:25.043481,3.98
2026-06-16 15:06:25.046507,-23.9
2026-06-16 15:06:25.046507,-15.82
2026-06-16 15:06:25.062348,63.86
2026-06-16 15:06:25.062348,127.22
2026-06-16 15:06:25.079127,143.5
2026-06-16 15:06:25.079127,127.86
2026-06-16 15:06:25.096255,132.19
2026-06-16 15:06:25.096255,142.48
2026-06-16 15:06:25.111941,125.84
2026-06-16 15:06:25.111941,93.38
2026-06-16 15:06:25.128409,47.14
2026-06-16 15:06:25.128409,-6.83
2026-06-16 15:06:25.144211,-40.62
2026-06-16 15:06:25.145162,-74.25
2026-06-16 15:06:25.160885,-81.84
2026-06-16 15:06:25.163121,-80.43
2026-06-16 15:06:25.176263,-92.97
2026-06-16 15:06:25.179295,-118.37
2026-06-16 15:06:25.186780,-138.68
2026-06-16 15:06:25.194493,-104.15
2026-06-16 15:06:25.194493,-44.93
2026-06-16 15:06:25.212096,18.98
2026-06-16 15:06:25.212096,51.72
2026-06-16 15:06:25.227969,20.61
2026-06-16 15:06:25.238607,-33.22
2026-06-16 15:06:25.246200,-20.12
2026-06-16 15:06:25.246200,37.69
2026-06-16 15:06:25.261733,86.26
2026-06-16 15:06:25.262712,60.95
2026-06-16 15:06:25.277445,2.94
2026-06-16 15:06:25.278836,-44.84
2026-06-16 15:06:25.293494,-42.62
2026-06-16 15:06:25.296085,6.35
2026-06-16 15:06:25.296085,37.16
2026-06-16 15:06:25.312353,60.85
2026-06-16 15:06:25.312353,58.56
2026-06-16 15:06:25.327782,34.39
2026-06-16 15:06:25.327782,-0.61
2026-06-16 15:06:25.344556,-40.41
2026-06-16 15:06:25.344556,-45.18
2026-06-16 15:06:25.363060,-22.07
2026-06-16 15:06:25.363060,-27.93
2026-06-16 15:06:25.377883,-64.6
2026-06-16 15:06:25.377883,-110.05
2026-06-16 15:06:25.394215,-85.62
2026-06-16 15:06:25.395628,-7.58
2026-06-16 15:06:25.409676,36.23
2026-06-16 15:06:25.411689,5.21
2026-06-16 15:06:25.426162,-67.45
2026-06-16 15:06:25.428713,-74.08
2026-06-16 15:06:25.428713,-24.95
2026-06-16 15:06:25.444856,44.82
2026-06-16 15:06:25.444856,73.45
2026-06-16 15:06:25.462403,52.19
2026-06-16 15:06:25.462403,17.1
2026-06-16 15:06:25.478847,-35.72
2026-06-16 15:06:25.480861,-95.24
2026-06-16 15:06:25.496051,-93.77
2026-06-16 15:06:25.501236,-49.52
2026-06-16 15:06:25.511784,-16.44
2026-06-16 15:06:25.512443,-31.28
2026-06-16 15:06:25.527387,-43.06
2026-06-16 15:06:25.529325,11.88
2026-06-16 15:06:25.543088,79.48
2026-06-16 15:06:25.546029,98.98
2026-06-16 15:06:25.546029,64.66
2026-06-16 15:06:25.563051,39.46
2026-06-16 15:06:25.563051,24.34
2026-06-16 15:06:25.579602,10.28
2026-06-16 15:06:25.579602,-7.68
2026-06-16 15:06:25.596178,-47.44
2026-06-16 15:06:25.596178,-115.86
2026-06-16 15:06:25.612318,-169.01
2026-06-16 15:06:25.612318,-174.13
2026-06-16 15:06:25.628600,-93.66
2026-06-16 15:06:25.628600,7.3
2026-06-16 15:06:25.643883,48.06
2026-06-16 15:06:25.644876,31.9
2026-06-16 15:06:25.659682,13.83
2026-06-16 15:06:25.662795,38.64
2026-06-16 15:06:25.676230,73.27
2026-06-16 15:06:25.679271,71.91
2026-06-16 15:06:25.679271,-7.06
2026-06-16 15:06:25.695312,-124.43
2026-06-16 15:06:25.695312,-175.55
2026-06-16 15:06:25.712454,-135.87
2026-06-16 15:06:25.712454,-86.43
2026-06-16 15:06:25.728180,-52.17
2026-06-16 15:06:25.728180,-52.91
2026-06-16 15:06:25.746468,-42.69
2026-06-16 15:06:25.752787,-23.57
2026-06-16 15:06:25.761227,-2.56
2026-06-16 15:06:25.763049,17.35
2026-06-16 15:06:25.777256,28.21
2026-06-16 15:06:25.778813,45.98
2026-06-16 15:06:25.793187,58.68
2026-06-16 15:06:25.795832,106.15
2026-06-16 15:06:25.809514,201.14
2026-06-16 15:06:25.812398,211.08
2026-06-16 15:06:25.812398,35.9
2026-06-16 15:06:25.828639,-223.97
2026-06-16 15:06:25.828639,-363.15
2026-06-16 15:06:25.844747,-237.95
2026-06-16 15:06:25.844747,-28.81
2026-06-16 15:06:25.863302,78.79
2026-06-16 15:06:25.863302,66.46
2026-06-16 15:06:25.879097,21.35
2026-06-16 15:06:25.879097,-6.61
2026-06-16 15:06:25.893894,-28.47
2026-06-16 15:06:25.895274,-38.28
2026-06-16 15:06:25.910526,-40.08
2026-06-16 15:06:25.912122,-46.84
2026-06-16 15:06:25.926194,-53.57
2026-06-16 15:06:25.929004,-89.12
2026-06-16 15:06:25.929004,-118.53
2026-06-16 15:06:25.945182,-106.99
2026-06-16 15:06:25.945182,-71.63
2026-06-16 15:06:25.963455,-13.56
2026-06-16 15:06:25.963455,-3.55
2026-06-16 15:06:25.978861,-2.53
2026-06-16 15:06:25.978861,27.33
2026-06-16 15:06:25.995306,80.92
2026-06-16 15:06:25.995306,104.4
2026-06-16 15:06:26.011538,79.0
2026-06-16 15:06:26.012240,51.74
2026-06-16 15:06:26.027006,60.44
2026-06-16 15:06:26.028712,73.07
2026-06-16 15:06:26.042574,52.81
2026-06-16 15:06:26.045206,16.72
2026-06-16 15:06:26.045206,0.72
2026-06-16 15:06:26.063562,8.67
2026-06-16 15:06:26.063562,-6.29
2026-06-16 15:06:26.078476,-48.05
2026-06-16 15:06:26.078476,-103.53
2026-06-16 15:06:26.095390,-117.94
2026-06-16 15:06:26.095390,-93.47
2026-06-16 15:06:26.112414,-59.17
2026-06-16 15:06:26.112414,-35.0
2026-06-16 15:06:26.128797,-23.88
2026-06-16 15:06:26.128797,-36.69
2026-06-16 15:06:26.144008,-54.42
2026-06-16 15:06:26.144932,-67.08
2026-06-16 15:06:26.160355,-84.66
2026-06-16 15:06:26.163746,-102.14
2026-06-16 15:06:26.175935,-111.58
2026-06-16 15:06:26.177874,-95.1
2026-06-16 15:06:26.177874,-87.66
2026-06-16 15:06:26.194885,-71.31
2026-06-16 15:06:26.194885,-68.96
2026-06-16 15:06:26.211713,-37.77
2026-06-16 15:06:26.211713,8.19
2026-06-16 15:06:26.228315,43.97
2026-06-16 15:06:26.228315,32.8
2026-06-16 15:06:26.245230,-1.19
2026-06-16 15:06:26.245230,-25.06
2026-06-16 15:06:26.262109,-34.89
2026-06-16 15:06:26.266890,-54.61
2026-06-16 15:06:26.277024,-66.28
2026-06-16 15:06:26.278025,-78.88
2026-06-16 15:06:26.292660,-89.44
2026-06-16 15:06:26.295142,-78.04
2026-06-16 15:06:26.309271,-42.83
2026-06-16 15:06:26.312291,20.07
2026-06-16 15:06:26.312291,53.8
2026-06-16 15:06:26.327734,41.59
2026-06-16 15:06:26.327734,-7.37
2026-06-16 15:06:26.344366,-29.22
2026-06-16 15:06:26.344366,-2.21
2026-06-16 15:06:26.360876,18.69
2026-06-16 15:06:26.364057,-0.31
2026-06-16 15:06:26.377539,-26.17
2026-06-16 15:06:26.377539,-37.98
2026-06-16 15:06:26.394538,-14.91
2026-06-16 15:06:26.394538,-6.87
2026-06-16 15:06:26.410260,-11.81
2026-06-16 15:06:26.411160,-2.8
2026-06-16 15:06:26.425934,18.11
2026-06-16 15:06:26.428235,50.85
2026-06-16 15:06:26.428235,57.56
2026-06-16 15:06:26.445272,68.22
2026-06-16 15:06:26.445272,63.9
2026-06-16 15:06:26.464542,45.67
2026-06-16 15:06:26.464542,38.48
2026-06-16 15:06:26.477826,32.31
2026-06-16 15:06:26.477826,13.25
2026-06-16 15:06:26.495093,-33.58
2026-06-16 15:06:26.495093,-111.03
2026-06-16 15:06:26.511145,-138.33
2026-06-16 15:06:26.511145,-109.78
2026-06-16 15:06:26.526924,-51.52
2026-06-16 15:06:26.528337,-33.35
2026-06-16 15:06:26.543443,-57.07
2026-06-16 15:06:26.545438,-75.68
2026-06-16 15:06:26.559146,-82.27
2026-06-16 15:06:26.564766,-41.07
2026-06-16 15:06:26.564766,13.87
2026-06-16 15:06:26.578624,45.64
2026-06-16 15:06:26.578624,25.51
2026-06-16 15:06:26.595633,-45.26
2026-06-16 15:06:26.595633,-87.82
2026-06-16 15:06:26.611729,-84.4
2026-06-16 15:06:26.611729,-94.92
2026-06-16 15:06:26.628303,-109.37
2026-06-16 15:06:26.628303,-128.73
2026-06-16 15:06:26.644537,-111.17
2026-06-16 15:06:26.645142,-69.82
2026-06-16 15:06:26.660285,-40.61
2026-06-16 15:06:26.664963,-5.58
2026-06-16 15:06:26.675778,10.36
2026-06-16 15:06:26.677790,16.28
2026-06-16 15:06:26.677790,-0.71
2026-06-16 15:06:26.695138,-10.66
2026-06-16 15:06:26.695138,-8.62
2026-06-16 15:06:26.711654,-23.5
2026-06-16 15:06:26.711654,-54.23
2026-06-16 15:06:26.727885,-66.89
2026-06-16 15:06:26.727885,-58.6
2026-06-16 15:06:26.745243,-21.49
2026-06-16 15:06:26.745243,-23.37
2026-06-16 15:06:26.761896,-51.11
2026-06-16 15:06:26.765484,-61.8
2026-06-16 15:06:26.777914,-32.64
2026-06-16 15:06:26.782451,25.23
2026-06-16 15:06:26.793421,48.99
2026-06-16 15:06:26.794410,50.73
2026-06-16 15:06:26.809137,74.36
2026-06-16 15:06:26.811150,156.57
2026-06-16 15:06:26.811150,298.07
2026-06-16 15:06:26.827200,315.49
2026-06-16 15:06:26.827200,94.02
2026-06-16 15:06:26.845295,-207.94
2026-06-16 15:06:26.845295,-350.18
2026-06-16 15:06:26.861954,-220.07
2026-06-16 15:06:26.865943,-15.0
2026-06-16 15:06:26.878167,60.7
2026-06-16 15:06:26.878167,33.53
2026-06-16 15:06:26.894492,31.37
2026-06-16 15:06:26.895081,101.86
2026-06-16 15:06:26.910167,140.15
2026-06-16 15:06:26.912149,131.49
2026-06-16 15:06:26.925814,96.01
2026-06-16 15:06:26.928728,77.62
2026-06-16 15:06:26.942405,100.12
2026-06-16 15:06:26.945081,90.66
2026-06-16 15:06:26.945081,9.61
2026-06-16 15:06:26.961868,-49.14
2026-06-16 15:06:26.965903,-43.92
2026-06-16 15:06:26.977679,35.9
2026-06-16 15:06:26.977679,93.43
2026-06-16 15:06:26.995321,97.94
2026-06-16 15:06:26.995321,73.57
2026-06-16 15:06:27.011488,79.17
2026-06-16 15:06:27.011488,120.57
2026-06-16 15:06:27.026901,139.86
2026-06-16 15:06:27.028578,141.15
2026-06-16 15:06:27.043472,135.47
2026-06-16 15:06:27.044872,112.91
2026-06-16 15:06:27.059319,99.41
2026-06-16 15:06:27.066560,70.05
2026-06-16 15:06:27.066560,29.9
2026-06-16 15:06:27.077996,9.86
2026-06-16 15:06:27.077996,-0.14
2026-06-16 15:06:27.095114,-14.07
2026-06-16 15:06:27.095114,-38.88
2026-06-16 15:06:27.111678,-63.56
2026-06-16 15:06:27.111678,-89.11
2026-06-16 15:06:27.128377,-103.59
2026-06-16 15:06:27.128377,-82.18
2026-06-16 15:06:27.144329,-54.9
2026-06-16 15:06:27.145093,-51.64
2026-06-16 15:06:27.160124,-74.27
2026-06-16 15:06:27.166886,-105.74
2026-06-16 15:06:27.175500,-107.2
2026-06-16 15:06:27.177511,-74.82
2026-06-16 15:06:27.192311,-64.5
2026-06-16 15:06:27.194384,-83.08
2026-06-16 15:06:27.194384,-115.5
2026-06-16 15:06:27.211407,-126.86
2026-06-16 15:06:27.211407,-122.25
2026-06-16 15:06:27.228033,-78.85
2026-06-16 15:06:27.228033,-15.77
2026-06-16 15:06:27.244438,32.07
2026-06-16 15:06:27.244438,63.75
2026-06-16 15:06:27.261108,56.46
2026-06-16 15:06:27.267209,2.45
2026-06-16 15:06:27.276878,-31.39
2026-06-16 15:06:27.277585,-26.26
2026-06-16 15:06:27.293418,-14.19
2026-06-16 15:06:27.297555,-25.06
2026-06-16 15:06:27.309103,-66.73
2026-06-16 15:06:27.311117,-79.33
2026-06-16 15:06:27.311117,-50.08
2026-06-16 15:06:27.327491,-2.07
2026-06-16 15:06:27.327491,-0.07
2026-06-16 15:06:27.344188,-14.99
2026-06-16 15:06:27.344188,-10.94
2026-06-16 15:06:27.360590,13.99
2026-06-16 15:06:27.367484,18.9
2026-06-16 15:06:27.377988,8.85
2026-06-16 15:06:27.377988,11.79
2026-06-16 15:06:27.394285,13.72
2026-06-16 15:06:27.394285,-2.26
2026-06-16 15:06:27.409968,-30.11
2026-06-16 15:06:27.411227,-86.68
2026-06-16 15:06:27.425617,-137.98
2026-06-16 15:06:27.428141,-141.27
2026-06-16 15:06:27.442326,-108.73
2026-06-16 15:06:27.445061,-34.55
2026-06-16 15:06:27.445061,5.42
2026-06-16 15:06:27.460712,18.33
2026-06-16 15:06:27.467671,16.25
2026-06-16 15:06:27.477993,27.11
2026-06-16 15:06:27.477993,37.92
2026-06-16 15:06:27.495063,54.64
2026-06-16 15:06:27.495063,79.25
2026-06-16 15:06:27.511808,53.97
2026-06-16 15:06:27.517196,-11.97
2026-06-16 15:06:27.526875,-33.8
2026-06-16 15:06:27.528362,4.18
2026-06-16 15:06:27.542506,50.93
2026-06-16 15:06:27.545533,25.8
2026-06-16 15:06:27.559153,-62.89
2026-06-16 15:06:27.562134,-62.57
2026-06-16 15:06:27.567786,25.3
2026-06-16 15:06:27.578088,101.79
2026-06-16 15:06:27.578088,99.29
2026-06-16 15:06:27.594964,37.1
2026-06-16 15:06:27.594964,-9.85
2026-06-16 15:06:27.612040,-11.79
2026-06-16 15:06:27.612040,-7.75
2026-06-16 15:06:27.628251,-16.66
2026-06-16 15:06:27.628251,-22.55
2026-06-16 15:06:27.644869,-10.5
2026-06-16 15:06:27.644869,-17.41
2026-06-16 15:06:27.660148,-25.28
2026-06-16 15:06:27.668207,-8.24
2026-06-16 15:06:27.675919,4.73
2026-06-16 15:06:27.678617,34.56
2026-06-16 15:06:27.678617,54.29
2026-06-16 15:06:27.694854,49.04
2026-06-16 15:06:27.694854,13.97
2026-06-16 15:06:27.710659,-33.86
2026-06-16 15:06:27.710659,-67.52
2026-06-16 15:06:27.727578,-66.19
2026-06-16 15:06:27.727578,-47.95
2026-06-16 15:06:27.745083,-49.7
2026-06-16 15:06:27.745083,-89.25
2026-06-16 15:06:27.761765,-115.67
2026-06-16 15:06:27.768930,-136.98
2026-06-16 15:06:27.776884,-125.35
2026-06-16 15:06:27.778481,-42.14
2026-06-16 15:06:27.792562,73.49
2026-06-16 15:06:27.795181,209.44
2026-06-16 15:06:27.808992,285.01
2026-06-16 15:06:27.812919,220.9
2026-06-16 15:06:27.818641,1.89
2026-06-16 15:06:27.827326,-225.97
2026-06-16 15:06:27.827326,-287.53
2026-06-16 15:06:27.844646,-179.63
2026-06-16 15:06:27.844646,-41.42
2026-06-16 15:06:27.861465,40.38
2026-06-16 15:06:27.869175,62.07
2026-06-16 15:06:27.877568,74.69
2026-06-16 15:06:27.882345,44.47
2026-06-16 15:06:27.894777,-19.44
2026-06-16 15:06:27.902710,-27.3
2026-06-16 15:06:27.910283,2.69
2026-06-16 15:06:27.912173,27.55
2026-06-16 15:06:27.925701,10.5
2026-06-16 15:06:27.928804,4.47
2026-06-16 15:06:27.942201,42.26
2026-06-16 15:06:27.949175,72.9
2026-06-16 15:06:27.949175,62.58
2026-06-16 15:06:27.961773,36.4
2026-06-16 15:06:27.969637,9.35
2026-06-16 15:06:27.977664,18.26
2026-06-16 15:06:27.977664,14.19
2026-06-16 15:06:27.994689,14.12
2026-06-16 15:06:27.994689,17.03
2026-06-16 15:06:28.011430,36.85
2026-06-16 15:06:28.011430,60.54
2026-06-16 15:06:28.026859,66.21
2026-06-16 15:06:28.028433,103.69
2026-06-16 15:06:28.042452,158.89
2026-06-16 15:06:28.045032,161.08
2026-06-16 15:06:28.059295,99.58
2026-06-16 15:06:28.061918,36.4
2026-06-16 15:06:28.070039,38.21
2026-06-16 15:06:28.077977,66.87
2026-06-16 15:06:28.077977,41.66
2026-06-16 15:06:28.094348,-34.17
2026-06-16 15:06:28.094348,-103.65
2026-06-16 15:06:28.110921,-113.08
2026-06-16 15:06:28.110921,-113.51
2026-06-16 15:06:28.127231,-107.97
2026-06-16 15:06:28.127231,-89.52
2026-06-16 15:06:28.144196,-67.18
2026-06-16 15:06:28.144874,-16.1
2026-06-16 15:06:28.160099,22.79
2026-06-16 15:06:28.161427,25.66
2026-06-16 15:06:28.175939,-6.31
2026-06-16 15:06:28.178959,-43.09
2026-06-16 15:06:28.192106,-49.84
2026-06-16 15:06:28.194802,-12.78
2026-06-16 15:06:28.194802,22.11
2026-06-16 15:06:28.210634,6.08
2026-06-16 15:06:28.210634,-79.52
2026-06-16 15:06:28.227645,-114.94
2026-06-16 15:06:28.227645,-62.63
2026-06-16 15:06:28.244280,35.2
2026-06-16 15:06:28.244280,80.79
2026-06-16 15:06:28.261810,37.6
2026-06-16 15:06:28.265839,-7.36
2026-06-16 15:06:28.276938,11.58
2026-06-16 15:06:28.277904,43.36
2026-06-16 15:06:28.292436,20.26
2026-06-16 15:06:28.295152,-34.57
2026-06-16 15:06:28.309272,-67.23
2026-06-16 15:06:28.311983,-66.89
2026-06-16 15:06:28.318711,-63.57
2026-06-16 15:06:28.331787,-53.31
2026-06-16 15:06:28.339542,-58.01
2026-06-16 15:06:28.343599,-40.81
2026-06-16 15:06:28.343599,-34.63
2026-06-16 15:06:28.360294,-25.51
2026-06-16 15:06:28.370658,4.47
2026-06-16 15:06:28.376962,43.25
2026-06-16 15:06:28.376962,61.94
2026-06-16 15:06:28.393684,47.7
2026-06-16 15:06:28.393684,35.52
2026-06-16 15:06:28.409961,46.29
2026-06-16 15:06:28.411329,38.1
2026-06-16 15:06:28.425691,2.09
2026-06-16 15:06:28.427705,-34.74
2026-06-16 15:06:28.442167,-36.55
2026-06-16 15:06:28.445156,2.44
2026-06-16 15:06:28.445156,9.39
2026-06-16 15:06:28.460597,9.34
2026-06-16 15:06:28.471058,21.23
2026-06-16 15:06:28.478378,47.99
2026-06-16 15:06:28.478378,50.74
2026-06-16 15:06:28.494966,15.66
2026-06-16 15:06:28.494966,-17.25
2026-06-16 15:06:28.512065,-26.12
2026-06-16 15:06:28.517234,-4.1
2026-06-16 15:06:28.526930,-2.09
2026-06-16 15:06:28.526930,-38.9
2026-06-16 15:06:28.542098,-45.67
2026-06-16 15:06:28.544684,-26.53
2026-06-16 15:06:28.558904,-24.41
2026-06-16 15:06:28.560914,-20.31
2026-06-16 15:06:28.571709,-20.21
2026-06-16 15:06:28.576963,11.73
2026-06-16 15:06:28.576963,28.59
2026-06-16 15:06:28.594047,13.52
2026-06-16 15:06:28.594047,9.48
2026-06-16 15:06:28.611566,32.31
2026-06-16 15:06:28.613580,36.13
2026-06-16 15:06:28.628766,14.06
2026-06-16 15:06:28.628766,31.9
2026-06-16 15:06:28.644421,67.56
2026-06-16 15:06:28.645360,42.35
2026-06-16 15:06:28.660147,-35.47
2026-06-16 15:06:28.661794,-96.99
2026-06-16 15:06:28.675757,-92.52
2026-06-16 15:06:28.678656,-17.43
2026-06-16 15:06:28.692078,30.41
2026-06-16 15:06:28.694569,39.22
2026-06-16 15:06:28.694569,10.17
2026-06-16 15:06:28.711311,0.16
2026-06-16 15:06:28.711311,22.05
2026-06-16 15:06:28.727310,32.89
2026-06-16 15:06:28.727310,7.85
2026-06-16 15:06:28.743697,-37.96
2026-06-16 15:06:28.743697,-42.75
2026-06-16 15:06:28.760942,-9.7
2026-06-16 15:06:28.760942,44.08
2026-06-16 15:06:28.776607,162.27
2026-06-16 15:06:28.777569,240.06
2026-06-16 15:06:28.792230,120.45
2026-06-16 15:06:28.795001,-156.76
2026-06-16 15:06:28.808929,-354.97
2026-06-16 15:06:28.811749,-258.67
2026-06-16 15:06:28.811749,-19.58
2026-06-16 15:06:28.827792,130.77
2026-06-16 15:06:28.840148,113.2
2026-06-16 15:06:28.847536,43.98
2026-06-16 15:06:28.848214,21.87
2026-06-16 15:06:28.861186,20.76
2026-06-16 15:06:28.861186,16.68
2026-06-16 15:06:28.878188,10.63
2026-06-16 15:06:28.883349,-28.23
2026-06-16 15:06:28.894325,-67.89
2026-06-16 15:06:28.894955,-76.51
2026-06-16 15:06:28.909887,-37.32
2026-06-16 15:06:28.911958,14.61
2026-06-16 15:06:28.925523,18.51
2026-06-16 15:06:28.928613,21.41
2026-06-16 15:06:28.942287,37.22
2026-06-16 15:06:28.945309,61.91
2026-06-16 15:06:28.945309,63.59
2026-06-16 15:06:28.961639,44.37
2026-06-16 15:06:28.972301,42.15
2026-06-16 15:06:28.978654,55.87
2026-06-16 15:06:28.978654,36.69
2026-06-16 15:06:28.994408,7.65
2026-06-16 15:06:28.994408,-6.32
2026-06-16 15:06:29.010478,8.64
2026-06-16 15:06:29.010478,24.52
2026-06-16 15:06:29.027403,33.35
2026-06-16 15:06:29.027788,58.06
2026-06-16 15:06:29.042232,72.69
2026-06-16 15:06:29.044256,79.29
2026-06-16 15:06:29.059146,42.08
2026-06-16 15:06:29.061777,1.08
2026-06-16 15:06:29.072854,-17.83
2026-06-16 15:06:29.077915,-32.67
2026-06-16 15:06:29.077915,-59.37
2026-06-16 15:06:29.094213,-90.91
2026-06-16 15:06:29.094213,-151.16
2026-06-16 15:06:29.111197,-174.28
2026-06-16 15:06:29.111197,-148.53
2026-06-16 15:06:29.127803,-81.13
2026-06-16 15:06:29.127803,-55.84
2026-06-16 15:06:29.144019,-84.42
2026-06-16 15:06:29.144019,-84.0
2026-06-16 15:06:29.159808,-28.85
2026-06-16 15:06:29.161297,50.89
2026-06-16 15:06:29.175401,60.59
2026-06-16 15:06:29.178427,15.51
2026-06-16 15:06:29.191951,0.51
2026-06-16 15:06:29.194802,7.47
2026-06-16 15:06:29.194802,-7.49
2026-06-16 15:06:29.210272,-25.37
2026-06-16 15:06:29.210272,-19.27
2026-06-16 15:06:29.228108,-6.24
2026-06-16 15:06:29.228108,-50.98
2026-06-16 15:06:29.243803,-70.63
2026-06-16 15:06:29.243803,-24.5
2026-06-16 15:06:29.261731,49.25
2026-06-16 15:06:29.266914,66.91
2026-06-16 15:06:29.277403,-2.08
2026-06-16 15:06:29.277739,-34.9
2026-06-16 15:06:29.293144,-0.9
2026-06-16 15:06:29.295088,43.88
2026-06-16 15:06:29.309274,51.62
2026-06-16 15:06:29.312198,32.46
2026-06-16 15:06:29.312198,40.26
2026-06-16 15:06:29.326695,50.01
2026-06-16 15:06:29.326695,12.94
2026-06-16 15:06:29.343720,-9.01
2026-06-16 15:06:29.355418,11.93
2026-06-16 15:06:29.360919,49.68
2026-06-16 15:06:29.360919,9.63
2026-06-16 15:06:29.376937,-81.96
2026-06-16 15:06:29.376937,-93.49
2026-06-16 15:06:29.394604,-30.34
2026-06-16 15:06:29.399794,34.49
2026-06-16 15:06:29.409725,28.35
2026-06-16 15:06:29.410692,-13.59
2026-06-16 15:06:29.425329,-34.41
2026-06-16 15:06:29.428191,-20.31
2026-06-16 15:06:29.441840,8.65
2026-06-16 15:06:29.444654,29.5
2026-06-16 15:06:29.444654,2.49
2026-06-16 15:06:29.460419,-44.29
2026-06-16 15:06:29.460419,-81.88
2026-06-16 15:06:29.478102,-32.72
2026-06-16 15:06:29.478102,28.14
2026-06-16 15:06:29.495140,41.93
2026-06-16 15:06:29.495140,53.66
2026-06-16 15:06:29.511504,61.35
2026-06-16 15:06:29.511504,49.11
2026-06-16 15:06:29.527438,-0.89
2026-06-16 15:06:29.532872,-28.74
2026-06-16 15:06:29.543212,20.15
2026-06-16 15:06:29.546998,69.8
2026-06-16 15:06:29.559144,66.47
2026-06-16 15:06:29.562100,24.35
2026-06-16 15:06:29.575053,-0.65
2026-06-16 15:06:29.577069,35.17
2026-06-16 15:06:29.577069,47.93
2026-06-16 15:06:29.593864,21.82
2026-06-16 15:06:29.593864,-30.03
2026-06-16 15:06:29.611129,-46.79
2026-06-16 15:06:29.611129,-4.77
2026-06-16 15:06:29.627590,47.0
2026-06-16 15:06:29.627590,84.57
2026-06-16 15:06:29.671960,57.28
2026-06-16 15:06:29.671960,17.2
2026-06-16 15:06:29.671960,16.12
2026-06-16 15:06:29.671960,14.05
2026-06-16 15:06:29.675162,-0.95
2026-06-16 15:06:29.685202,8.01
2026-06-16 15:06:29.691494,30.86
2026-06-16 15:06:29.693417,69.51
2026-06-16 15:06:29.693417,53.24
2026-06-16 15:06:29.710077,7.2
2026-06-16 15:06:29.710077,-12.73
2026-06-16 15:06:29.727301,15.19
2026-06-16 15:06:29.727301,39.99
2026-06-16 15:06:29.744745,33.82
2026-06-16 15:06:29.744745,40.62
2026-06-16 15:06:29.760587,74.24
2026-06-16 15:06:29.760587,103.72
2026-06-16 15:06:29.777282,103.2
2026-06-16 15:06:29.780836,44.98
2026-06-16 15:06:29.793135,-32.86
2026-06-16 15:06:29.795154,-45.63
2026-06-16 15:06:29.808989,5.34
2026-06-16 15:06:29.812667,71.98
2026-06-16 15:06:29.825141,106.45
2026-06-16 15:06:29.828176,204.42
2026-06-16 15:06:29.828176,274.04
2026-06-16 15:06:29.844291,162.23
2026-06-16 15:06:29.844291,-116.19
2026-06-16 15:06:29.863025,-306.65
2026-06-16 15:06:29.870605,-222.53
2026-06-16 15:06:29.876830,3.45
2026-06-16 15:06:29.876830,104.93
2026-06-16 15:06:29.893612,63.61
2026-06-16 15:06:29.893612,18.51
2026-06-16 15:06:29.910198,23.4
2026-06-16 15:06:29.912550,22.28
2026-06-16 15:06:29.925838,9.24
2026-06-16 15:06:29.926879,8.2
2026-06-16 15:06:29.941578,-10.75
2026-06-16 15:06:29.944146,-0.75
2026-06-16 15:06:29.944146,31.1
2026-06-16 15:06:29.960524,64.77
2026-06-16 15:06:29.960524,61.46
2026-06-16 15:06:29.976928,21.36
2026-06-16 15:06:29.976928,10.3
2026-06-16 15:06:29.993489,40.1
2026-06-16 15:06:29.993489,34.93
2026-06-16 15:06:30.010860,12.86
2026-06-16 15:06:30.015952,2.85
2026-06-16 15:06:30.027780,37.66
2026-06-16 15:06:30.027780,51.4
2026-06-16 15:06:30.042605,30.25
2026-06-16 15:06:30.044086,38.06
2026-06-16 15:06:30.058408,44.83
2026-06-16 15:06:30.061251,77.44
2026-06-16 15:06:30.061251,102.93
2026-06-16 15:06:30.076907,107.39
2026-06-16 15:06:30.076907,92.92
2026-06-16 15:06:30.093415,55.64
2026-06-16 15:06:30.093415,29.49
2026-06-16 15:06:30.110125,28.35
2026-06-16 15:06:30.110125,10.3
2026-06-16 15:06:30.126857,-29.55
2026-06-16 15:06:30.126857,-72.19
2026-06-16 15:06:30.143537,-67.85
2026-06-16 15:06:30.143537,-76.47
2026-06-16 15:06:30.160123,-144.74
2026-06-16 15:06:30.160616,-182.82
2026-06-16 15:06:30.174886,-162.01
2026-06-16 15:06:30.177067,-62.69
2026-06-16 15:06:30.191316,1.3
2026-06-16 15:06:30.193070,-25.57
2026-06-16 15:06:30.193070,-56.29
2026-06-16 15:06:30.210050,-32.12
2026-06-16 15:06:30.210050,0.87
2026-06-16 15:06:30.226266,2.86
2026-06-16 15:06:30.226266,-24.02
2026-06-16 15:06:30.243094,-28.88
2026-06-16 15:06:30.243094,-33.71
2026-06-16 15:06:30.260991,-35.53
2026-06-16 15:06:30.263000,-24.41
2026-06-16 15:06:30.276308,1.59
2026-06-16 15:06:30.276308,30.43
2026-06-16 15:06:30.292427,26.3
2026-06-16 15:06:30.293371,30.15
2026-06-16 15:06:30.308138,35.97
2026-06-16 15:06:30.310159,28.82
2026-06-16 15:06:30.310159,20.72
2026-06-16 15:06:30.326679,13.65
2026-06-16 15:06:30.326679,5.62
2026-06-16 15:06:30.343208,-17.29
2026-06-16 15:06:30.343208,-52.03
2026-06-16 15:06:30.359955,-49.78
2026-06-16 15:06:30.371014,-41.57
2026-06-16 15:06:30.378474,-29.42
2026-06-16 15:06:30.378474,-36.24
2026-06-16 15:06:30.393577,-48.0
2026-06-16 15:06:30.393577,-30.84
2026-06-16 15:06:30.409522,-23.73
2026-06-16 15:06:30.410393,-7.69
2026-06-16 15:06:30.425164,-10.63
2026-06-16 15:06:30.427621,-21.52
2026-06-16 15:06:30.441783,-31.37
2026-06-16 15:06:30.443797,-33.2
2026-06-16 15:06:30.443797,-28.06
2026-06-16 15:06:30.460637,-50.8
2026-06-16 15:06:30.460637,-114.23
2026-06-16 15:06:30.477296,-136.54
2026-06-16 15:06:30.477296,-115.96
2026-06-16 15:06:30.493909,-58.67
2026-06-16 15:06:30.493909,-10.61
2026-06-16 15:06:30.511512,-0.61
2026-06-16 15:06:30.516893,7.35
2026-06-16 15:06:30.527604,-15.57
2026-06-16 15:06:30.527604,-32.41
2026-06-16 15:06:30.542941,-33.24
2026-06-16 15:06:30.544484,-20.14
2026-06-16 15:06:30.558818,-26.01
2026-06-16 15:06:30.561840,-46.77
2026-06-16 15:06:30.574880,-28.63
2026-06-16 15:06:30.577772,12.31
2026-06-16 15:06:30.577772,1.3
2026-06-16 15:06:30.594174,-22.58
2026-06-16 15:06:30.594174,-46.35
2026-06-16 15:06:30.610791,-11.29
2026-06-16 15:06:30.610791,18.61
2026-06-16 15:06:30.627951,2.6
2026-06-16 15:06:30.627951,-0.4
2026-06-16 15:06:30.643859,8.56
2026-06-16 15:06:30.643859,26.43
2026-06-16 15:06:30.659499,19.33
2026-06-16 15:06:30.663569,-4.65
2026-06-16 15:06:30.675057,-2.63
2026-06-16 15:06:30.677572,17.28
2026-06-16 15:06:30.691845,16.2
2026-06-16 15:06:30.694869,-15.72
2026-06-16 15:06:30.708201,-40.52
2026-06-16 15:06:30.711271,-9.47
2026-06-16 15:06:30.711271,12.47
2026-06-16 15:06:30.727051,33.3
2026-06-16 15:06:30.727051,28.16
2026-06-16 15:06:30.744413,13.09
2026-06-16 15:06:30.744413,20.98
2026-06-16 15:06:30.760619,27.85
2026-06-16 15:06:30.760619,33.68
2026-06-16 15:06:30.776996,29.53
2026-06-16 15:06:30.778237,29.38
2026-06-16 15:06:30.792624,34.21
2026-06-16 15:06:30.793728,7.17
2026-06-16 15:06:30.808295,-52.56
2026-06-16 15:06:30.810332,-88.12
2026-06-16 15:06:30.824875,-86.69
2026-06-16 15:06:30.827262,-28.54
2026-06-16 15:06:30.827262,35.28
2026-06-16 15:06:30.843698,58.98
2026-06-16 15:06:30.843698,5.95
2026-06-16 15:06:30.860678,-53.78
2026-06-16 15:06:30.860678,-28.63
2026-06-16 15:06:30.879056,27.23
2026-06-16 15:06:30.885693,62.92
2026-06-16 15:06:30.893920,24.79
2026-06-16 15:06:30.893920,-33.04
2026-06-16 15:06:30.909452,64.63
2026-06-16 15:06:30.911188,270.27
2026-06-16 15:06:30.925135,327.63
2026-06-16 15:06:30.928057,91.17
2026-06-16 15:06:30.941939,-243.61
2026-06-16 15:06:30.944779,-366.76
2026-06-16 15:06:30.957993,-250.5
2026-06-16 15:06:30.960565,-49.26
2026-06-16 15:06:30.960565,39.54
2026-06-16 15:06:30.977255,26.41
2026-06-16 15:06:30.977255,25.28
2026-06-16 15:06:30.994531,-6.68
2026-06-16 15:06:30.994531,-41.47
2026-06-16 15:06:31.009815,-31.32
2026-06-16 15:06:31.009815,10.63
2026-06-16 15:06:31.026782,65.3
2026-06-16 15:06:31.026782,102.79
2026-06-16 15:06:31.042634,113.22
2026-06-16 15:06:31.044173,71.86
2026-06-16 15:06:31.058279,-8.1
2026-06-16 15:06:31.061298,-25.97
2026-06-16 15:06:31.074910,10.97
2026-06-16 15:06:31.077503,69.62
2026-06-16 15:06:31.077503,74.25
2026-06-16 15:06:31.093805,45.02
2026-06-16 15:06:31.093805,55.74
2026-06-16 15:06:31.110411,64.42
2026-06-16 15:06:31.110411,64.1
2026-06-16 15:06:31.126815,50.84
2026-06-16 15:06:31.126815,57.55
2026-06-16 15:06:31.144540,90.1
2026-06-16 15:06:31.144540,88.65
2026-06-16 15:06:31.160254,56.37
2026-06-16 15:06:31.161126,56.09
2026-06-16 15:06:31.176004,79.69
2026-06-16 15:06:31.177527,96.2
2026-06-16 15:06:31.191829,54.93
2026-06-16 15:06:31.194847,13.86
2026-06-16 15:06:31.194847,-29.0
2026-06-16 15:06:31.210801,-50.74
2026-06-16 15:06:31.210801,-63.42
2026-06-16 15:06:31.226858,-74.05
2026-06-16 15:06:31.226858,-46.81
2026-06-16 15:06:31.243935,-32.65
2026-06-16 15:06:31.243935,-85.22
2026-06-16 15:06:31.261671,-145.49
2026-06-16 15:06:31.261671,-152.72
2026-06-16 15:06:31.276724,-98.23
2026-06-16 15:06:31.278322,-36.05
2026-06-16 15:06:31.293130,-38.85
2026-06-16 15:06:31.293469,-70.5
2026-06-16 15:06:31.308296,-90.05
2026-06-16 15:06:31.310680,-66.71
2026-06-16 15:06:31.324729,-52.45
2026-06-16 15:06:31.327192,-28.31
2026-06-16 15:06:31.327192,4.67
2026-06-16 15:06:31.343088,6.64
2026-06-16 15:06:31.343088,-14.29
2026-06-16 15:06:31.360382,-25.16
2026-06-16 15:06:31.360382,-16.08
2026-06-16 15:06:31.377887,3.9
2026-06-16 15:06:31.377887,-15.03
2026-06-16 15:06:31.394322,-51.77
2026-06-16 15:06:31.399264,-58.47
2026-06-16 15:06:31.409893,-31.32
2026-06-16 15:06:31.409893,7.65
2026-06-16 15:06:31.424802,7.61
2026-06-16 15:06:31.426814,10.55
2026-06-16 15:06:31.441616,17.47
2026-06-16 15:06:31.444637,25.34
2026-06-16 15:06:31.457725,33.17
2026-06-16 15:06:31.459744,13.11
2026-06-16 15:06:31.459744,-9.84
2026-06-16 15:06:31.477996,1.15
2026-06-16 15:06:31.477996,39.95
2026-06-16 15:06:31.494030,63.63
2026-06-16 15:06:31.494030,49.38
2026-06-16 15:06:31.510412,18.29
2026-06-16 15:06:31.510412,-23.59
2026-06-16 15:06:31.526979,-48.35
2026-06-16 15:06:31.526979,-7.31
2026-06-16 15:06:31.542539,40.48
2026-06-16 15:06:31.543901,80.08
2026-06-16 15:06:31.558061,71.72
2026-06-16 15:06:31.560902,25.59
2026-06-16 15:06:31.574859,-20.3
2026-06-16 15:06:31.577902,-49.06
2026-06-16 15:06:31.577902,-37.87
2026-06-16 15:06:31.594041,3.12
2026-06-16 15:06:31.594041,13.05
2026-06-16 15:06:31.610445,-28.8
2026-06-16 15:06:31.610445,-79.41
2026-06-16 15:06:31.626699,-49.16
2026-06-16 15:06:31.626699,23.72
2026-06-16 15:06:31.643828,44.5
2026-06-16 15:06:31.649030,-10.45
2026-06-16 15:06:31.660094,-96.96
2026-06-16 15:06:31.660661,-88.52
2026-06-16 15:06:31.675800,-9.47
2026-06-16 15:06:31.678249,85.1
2026-06-16 15:06:31.691680,115.52
2026-06-16 15:06:31.694596,57.24
2026-06-16 15:06:31.707679,-11.71
2026-06-16 15:06:31.710385,-24.58
2026-06-16 15:06:31.710385,-38.39
2026-06-16 15:06:31.726928,-44.17
2026-06-16 15:06:31.726928,-24.05
2026-06-16 15:06:31.743850,9.9
2026-06-16 15:06:31.743850,-8.06
2026-06-16 15:06:31.760993,-85.63
2026-06-16 15:06:31.766189,-118.03
2026-06-16 15:06:31.776877,-59.73
2026-06-16 15:06:31.778228,52.01
2026-06-16 15:06:31.792641,88.56
2026-06-16 15:06:31.794467,40.36
2026-06-16 15:06:31.808223,19.26
2026-06-16 15:06:31.810972,34.09
2026-06-16 15:06:31.824331,41.88
2026-06-16 15:06:31.827024,52.62
2026-06-16 15:06:31.827024,38.42
2026-06-16 15:06:31.842935,12.36
2026-06-16 15:06:31.842935,-12.58
2026-06-16 15:06:31.860786,-2.56
2026-06-16 15:06:31.860786,12.37
2026-06-16 15:06:31.878485,8.33
2026-06-16 15:06:31.878485,-4.64
2026-06-16 15:06:31.894013,-6.61
2026-06-16 15:06:31.899265,25.26
2026-06-16 15:06:31.909724,37.08
2026-06-16 15:06:31.913137,17.99
2026-06-16 15:06:31.925387,9.94
2026-06-16 15:06:31.925872,17.85
2026-06-16 15:06:31.940964,37.66
2026-06-16 15:06:31.942957,111.1
2026-06-16 15:06:31.942957,227.95
2026-06-16 15:06:31.960473,285.52
2026-06-16 15:06:31.960473,106.98
2026-06-16 15:06:31.979054,-186.08
2026-06-16 15:06:31.979054,-309.53
2026-06-16 15:06:31.993951,-177.64
2026-06-16 15:06:31.993951,17.28
2026-06-16 15:06:32.010863,54.01
2026-06-16 15:06:32.016032,-9.94
2026-06-16 15:06:32.027404,-23.83
2026-06-16 15:06:32.027404,19.08
2026-06-16 15:06:32.042365,29.93
2026-06-16 15:06:32.044179,10.87
2026-06-16 15:06:32.057961,24.75
2026-06-16 15:06:32.060769,58.46
2026-06-16 15:06:32.074040,43.24
2026-06-16 15:06:32.080618,25.11
2026-06-16 15:06:32.080618,29.96
2026-06-16 15:06:32.092246,55.68
2026-06-16 15:06:32.104295,50.43
2026-06-16 15:06:32.111769,8.39
2026-06-16 15:06:32.111769,7.35
2026-06-16 15:06:32.126041,37.16
2026-06-16 15:06:32.135726,62.85
2026-06-16 15:06:32.142176,69.5
2026-06-16 15:06:32.142176,66.17
2026-06-16 15:06:32.160126,78.77
2026-06-16 15:06:32.160126,81.36
2026-06-16 15:06:32.175472,72.0
2026-06-16 15:06:32.179242,81.59
2026-06-16 15:06:32.190598,77.2
2026-06-16 15:06:32.192301,82.78
2026-06-16 15:06:32.192301,67.45
2026-06-16 15:06:32.209046,58.15
2026-06-16 15:06:32.218138,61.84
2026-06-16 15:06:32.225641,50.59
2026-06-16 15:06:32.225641,30.44
2026-06-16 15:06:32.242114,7.4
2026-06-16 15:06:32.242114,-3.58
2026-06-16 15:06:32.259199,-22.47
2026-06-16 15:06:32.259199,-59.17
2026-06-16 15:06:32.275581,-83.75
2026-06-16 15:06:32.279544,-109.2
2026-06-16 15:06:32.292226,-124.58
2026-06-16 15:06:32.300709,-110.02
2026-06-16 15:06:32.308317,-97.53
2026-06-16 15:06:32.309318,-69.19
2026-06-16 15:06:32.323987,-70.83
2026-06-16 15:06:32.327001,-76.45
2026-06-16 15:06:32.327001,-61.14
2026-06-16 15:06:32.343453,-26.01
2026-06-16 15:06:32.353320,-0.01
2026-06-16 15:06:32.359146,-35.83
2026-06-16 15:06:32.369322,-68.48
2026-06-16 15:06:32.376008,-62.17
2026-06-16 15:06:32.379487,-39.97
2026-06-16 15:06:32.392574,4.01
2026-06-16 15:06:32.392574,6.97
2026-06-16 15:06:32.409251,-12.96
2026-06-16 15:06:32.409251,-9.91
2026-06-16 15:06:32.425584,13.02
2026-06-16 15:06:32.431625,33.85
2026-06-16 15:06:32.440351,-9.1
2026-06-16 15:06:32.442595,-52.84
2026-06-16 15:06:32.442595,-32.67
2026-06-16 15:06:32.459255,21.22
2026-06-16 15:06:32.471640,46.99
2026-06-16 15:06:32.479371,21.88
2026-06-16 15:06:32.479371,21.77
2026-06-16 15:06:32.494275,60.46
2026-06-16 15:06:32.502731,61.16
2026-06-16 15:06:32.508979,4.13
2026-06-16 15:06:32.508979,-40.66
2026-06-16 15:06:32.525654,-35.48
2026-06-16 15:06:32.525654,-32.32
2026-06-16 15:06:32.542455,-91.86
2026-06-16 15:06:32.542455,-103.34
2026-06-16 15:06:32.558188,-37.15
2026-06-16 15:06:32.559135,62.53
2026-06-16 15:06:32.573844,81.13
2026-06-16 15:06:32.579562,22.01
2026-06-16 15:06:32.579562,-19.89
2026-06-16 15:06:32.592183,4.09
2026-06-16 15:06:32.592183,31.93
2026-06-16 15:06:32.608804,11.87
2026-06-16 15:06:32.608804,-8.09
2026-06-16 15:06:32.625427,11.85
2026-06-16 15:06:32.625427,32.69
2026-06-16 15:06:32.641996,31.53
2026-06-16 15:06:32.641996,5.5
2026-06-16 15:06:32.658945,-21.39
2026-06-16 15:06:32.658945,-1.38
2026-06-16 15:06:32.675573,22.51
2026-06-16 15:06:32.679613,57.22
2026-06-16 15:06:32.690452,70.86
2026-06-16 15:06:32.692126,51.6
2026-06-16 15:06:32.692126,17.51
2026-06-16 15:06:32.708867,-19.39
2026-06-16 15:06:32.708867,-30.24
2026-06-16 15:06:32.725625,4.74
2026-06-16 15:06:32.725625,47.5
2026-06-16 15:06:32.741773,60.2
2026-06-16 15:06:32.741773,24.08
2026-06-16 15:06:32.758625,-14.85
2026-06-16 15:06:32.758625,-20.74
2026-06-16 15:06:32.775493,-11.68
2026-06-16 15:06:32.779505,23.2
2026-06-16 15:06:32.791834,37.01
2026-06-16 15:06:32.791834,50.76
2026-06-16 15:06:32.808103,35.58
2026-06-16 15:06:32.808927,-11.36
2026-06-16 15:06:32.823811,-21.26
2026-06-16 15:06:32.825562,-15.18
2026-06-16 15:06:32.825562,-34.01
2026-06-16 15:06:32.842283,-42.79
2026-06-16 15:06:32.842283,-21.69
2026-06-16 15:06:32.858742,32.15
2026-06-16 15:06:32.858742,47.91
2026-06-16 15:06:32.875368,27.77
2026-06-16 15:06:32.879596,29.62
2026-06-16 15:06:32.891754,26.49
2026-06-16 15:06:32.891754,1.48
2026-06-16 15:06:32.908854,-56.23
2026-06-16 15:06:32.908854,-50.98
2026-06-16 15:06:32.925328,-5.95
2026-06-16 15:06:32.933366,35.87
2026-06-16 15:06:32.940368,65.54
2026-06-16 15:06:32.942113,62.23
2026-06-16 15:06:32.942113,32.07
2026-06-16 15:06:32.958662,8.03
2026-06-16 15:06:32.958662,-28.83
2026-06-16 15:06:32.979570,-27.69
2026-06-16 15:06:32.979570,-5.66
2026-06-16 15:06:32.991734,7.3
2026-06-16 15:06:32.991734,-7.66
2026-06-16 15:06:33.008791,-60.35
2026-06-16 15:06:33.008791,-73.98
2026-06-16 15:06:33.025304,-45.75
2026-06-16 15:06:33.025304,20.15
2026-06-16 15:06:33.041845,32.98
2026-06-16 15:06:33.041845,-12.95
2026-06-16 15:06:33.058132,-24.83
2026-06-16 15:06:33.058960,-5.8
2026-06-16 15:06:33.073697,86.76
2026-06-16 15:06:33.079697,260.45
2026-06-16 15:06:33.079697,315.87
2026-06-16 15:06:33.092181,152.1
2026-06-16 15:06:33.092181,-126.26
2026-06-16 15:06:33.108654,-256.97
2026-06-16 15:06:33.108654,-172.11
2026-06-16 15:06:33.125483,-37.92
2026-06-16 15:06:33.125483,2.07
2026-06-16 15:06:33.142997,-43.71
2026-06-16 15:06:33.142997,-14.63
2026-06-16 15:06:33.158918,44.14
2026-06-16 15:06:33.158918,29.0
2026-06-16 15:06:33.175737,-10.95
2026-06-16 15:06:33.179969,-24.82
2026-06-16 15:06:33.190327,-3.8
2026-06-16 15:06:33.191978,23.08
2026-06-16 15:06:33.191978,0.08
2026-06-16 15:06:33.208617,-13.85
2026-06-16 15:06:33.208617,7.12
2026-06-16 15:06:33.225335,47.87
2026-06-16 15:06:33.225335,41.67
2026-06-16 15:06:33.241953,-2.32
2026-06-16 15:06:33.241953,9.63
2026-06-16 15:06:33.261263,59.33
2026-06-16 15:06:33.261263,117.74
2026-06-16 15:06:33.275047,135.06
2026-06-16 15:06:33.280040,101.55
2026-06-16 15:06:33.291899,88.11
2026-06-16 15:06:33.291899,103.59
2026-06-16 15:06:33.307980,113.02
2026-06-16 15:06:33.308981,109.47
2026-06-16 15:06:33.323602,93.0
2026-06-16 15:06:33.325494,87.56
2026-06-16 15:06:33.325494,62.25
2026-06-16 15:06:33.341813,22.14
2026-06-16 15:06:33.341813,-3.84
2026-06-16 15:06:33.358952,-4.82
2026-06-16 15:06:33.365989,20.08
2026-06-16 15:06:33.375189,4.06
2026-06-16 15:06:33.380210,-54.67
2026-06-16 15:06:33.392047,-100.16
2026-06-16 15:06:33.392047,-87.72
2026-06-16 15:06:33.408725,-41.51
2026-06-16 15:06:33.408725,-44.29
2026-06-16 15:06:33.425445,-102.77
2026-06-16 15:06:33.425445,-148.03
2026-06-16 15:06:33.441257,-149.28
2026-06-16 15:06:33.448966,-91.82
2026-06-16 15:06:33.456903,-88.37
2026-06-16 15:06:33.458753,-119.77
2026-06-16 15:06:33.458753,-94.3
2026-06-16 15:06:33.480213,-18.21
2026-06-16 15:06:33.480213,33.62
2026-06-16 15:06:33.491994,4.6
2026-06-16 15:06:33.491994,-19.3
2026-06-16 15:06:33.508505,-3.29
2026-06-16 15:06:33.508505,19.62
2026-06-16 15:06:33.525087,24.49
2026-06-16 15:06:33.525087,8.45
2026-06-16 15:06:33.542285,2.44
2026-06-16 15:06:33.542285,-1.55
2026-06-16 15:06:33.558020,-23.44
2026-06-16 15:06:33.559306,-6.4
2026-06-16 15:06:33.573792,4.57
2026-06-16 15:06:33.580268,-4.41
2026-06-16 15:06:33.580268,-52.14
2026-06-16 15:06:33.592017,-81.73
2026-06-16 15:06:33.592017,-47.49
2026-06-16 15:06:33.608550,-20.39
2026-06-16 15:06:33.608550,-24.27
2026-06-16 15:06:33.625026,-42.06
2026-06-16 15:06:33.625026,-60.75
2026-06-16 15:06:33.641722,-55.47
2026-06-16 15:06:33.641722,-34.3
2026-06-16 15:06:33.658305,-10.25
2026-06-16 15:06:33.658305,8.71
2026-06-16 15:06:33.675597,-9.25
2026-06-16 15:06:33.680229,-19.15
2026-06-16 15:06:33.690430,-14.08
2026-06-16 15:06:33.692461,13.85
2026-06-16 15:06:33.706992,3.83
2026-06-16 15:06:33.709790,-39.97
2026-06-16 15:06:33.709790,-39.77
2026-06-16 15:06:33.726440,-16.68
2026-06-16 15:06:33.726440,-2.67
2026-06-16 15:06:33.742451,-11.61
2026-06-16 15:06:33.742451,-30.46
2026-06-16 15:06:33.760075,-29.31
2026-06-16 15:06:33.765244,-40.11
2026-06-16 15:06:33.776619,-40.91
2026-06-16 15:06:33.780381,1.09
2026-06-16 15:06:33.792748,29.94
2026-06-16 15:06:33.798865,59.64
2026-06-16 15:06:33.808030,44.42
2026-06-16 15:06:33.808831,32.25
2026-06-16 15:06:33.824098,18.16
2026-06-16 15:06:33.826072,18.07
2026-06-16 15:06:33.840452,31.91
2026-06-16 15:06:33.842480,16.83
2026-06-16 15:06:33.842480,-17.09
2026-06-16 15:06:33.859379,-26.95
2026-06-16 15:06:33.859379,0.05
2026-06-16 15:06:33.876290,33.88
2026-06-16 15:06:33.880886,19.78
2026-06-16 15:06:33.892701,-11.17
2026-06-16 15:06:33.892701,-12.11
2026-06-16 15:06:33.908677,-1.1
2026-06-16 15:06:33.908677,19.8
2026-06-16 15:06:33.925625,-3.18
2026-06-16 15:06:33.928329,-29.04
2026-06-16 15:06:33.940314,-37.85
2026-06-16 15:06:33.941768,-14.77
2026-06-16 15:06:33.957118,10.18
2026-06-16 15:06:33.963558,-1.81
2026-06-16 15:06:33.963558,-25.69
2026-06-16 15:06:33.975303,-19.59
2026-06-16 15:06:33.980902,9.37
2026-06-16 15:06:33.992135,31.21
2026-06-16 15:06:33.992135,0.21
2026-06-16 15:06:34.009980,-23.67
2026-06-16 15:06:34.015184,-6.64
2026-06-16 15:06:34.025935,7.32
2026-06-16 15:06:34.025935,14.25
2026-06-16 15:06:34.042655,-2.73
2026-06-16 15:06:34.048861,2.25
2026-06-16 15:06:34.058573,21.15
2026-06-16 15:06:34.065462,21.04
2026-06-16 15:06:34.074094,-4.93
2026-06-16 15:06:34.081088,-31.77
2026-06-16 15:06:34.090461,-8.73
2026-06-16 15:06:34.097372,29.12
2026-06-16 15:06:34.097372,38.93
2026-06-16 15:06:34.109940,16.84
2026-06-16 15:06:34.109940,-34.98
2026-06-16 15:06:34.126463,-35.8
2026-06-16 15:06:34.126463,24.08
2026-06-16 15:06:34.144026,61.77
2026-06-16 15:06:34.144026,67.43
2026-06-16 15:06:34.160250,43.21
2026-06-16 15:06:34.160250,43.99
2026-06-16 15:06:34.175072,66.66
2026-06-16 15:06:34.181422,56.37
2026-06-16 15:06:34.190812,-0.62
2026-06-16 15:06:34.193828,-45.4
2026-06-16 15:06:34.207437,-1.39
2026-06-16 15:06:34.210193,62.3
2026-06-16 15:06:34.210193,64.97
2026-06-16 15:06:34.226104,123.35
2026-06-16 15:06:34.226104,258.05
2026-06-16 15:06:34.242995,309.5
2026-06-16 15:06:34.242995,118.9
2026-06-16 15:06:34.259872,-219.99
2026-06-16 15:06:34.259872,-383.07
2026-06-16 15:06:34.276691,-280.66
2026-06-16 15:06:34.282083,-89.21
2026-06-16 15:06:34.292824,-2.2
2026-06-16 15:06:34.294864,4.78
2026-06-16 15:06:34.308501,10.72
2026-06-16 15:06:34.310246,10.67
2026-06-16 15:06:34.324157,-5.3
2026-06-16 15:06:34.326193,2.68
2026-06-16 15:06:34.340269,-2.3
2026-06-16 15:06:34.343310,-11.25
2026-06-16 15:06:34.343310,-19.15
2026-06-16 15:06:34.358829,-12.09
2026-06-16 15:06:34.358829,0.9
2026-06-16 15:06:34.376478,-14.03
2026-06-16 15:06:34.382430,-29.87
2026-06-16 15:06:34.392754,-23.76
2026-06-16 15:06:34.392754,24.12
2026-06-16 15:06:34.408370,52.86
2026-06-16 15:06:34.408370,28.71
2026-06-16 15:06:34.424887,22.6
2026-06-16 15:06:34.430977,54.33
2026-06-16 15:06:34.441432,81.92
2026-06-16 15:06:34.442862,76.53
2026-06-16 15:06:34.457278,45.3
2026-06-16 15:06:34.464202,61.0
2026-06-16 15:06:34.469110,116.41
2026-06-16 15:06:34.476400,144.68
2026-06-16 15:06:34.482803,116.1
2026-06-16 15:06:34.492675,75.72
2026-06-16 15:06:34.492675,60.42
2026-06-16 15:06:34.509596,23.3
2026-06-16 15:06:34.509596,0.3
2026-06-16 15:06:34.526593,1.29
2026-06-16 15:06:34.526593,14.22
2026-06-16 15:06:34.542497,-1.77
2026-06-16 15:06:34.543415,-65.44
2026-06-16 15:06:34.558228,-124.81
2026-06-16 15:06:34.560001,-126.18
2026-06-16 15:06:34.573976,-120.57
2026-06-16 15:06:34.576984,-109.03
2026-06-16 15:06:34.590255,-107.49
2026-06-16 15:06:34.593028,-94.01
2026-06-16 15:06:34.593028,-64.69
2026-06-16 15:06:34.608905,-63.37
2026-06-16 15:06:34.608905,-69.02
2026-06-16 15:06:34.626199,-84.6
2026-06-16 15:06:34.626199,-73.23
2026-06-16 15:06:34.642551,-54.95
2026-06-16 15:06:34.642551,-38.76
2026-06-16 15:06:34.659194,-1.75
2026-06-16 15:06:34.665866,20.15
2026-06-16 15:06:34.675107,-0.85
2026-06-16 15:06:34.683423,-39.65
2026-06-16 15:06:34.690661,-72.29
2026-06-16 15:06:34.693654,-26.15
2026-06-16 15:06:34.707346,24.72
2026-06-16 15:06:34.710298,34.55
2026-06-16 15:06:34.710298,-1.44
2026-06-16 15:06:34.726033,-39.25
2026-06-16 15:06:34.726033,-13.18
2026-06-16 15:06:34.743061,24.69
2026-06-16 15:06:34.743061,43.48
2026-06-16 15:06:34.760048,26.34
2026-06-16 15:06:34.760048,-13.59
2026-06-16 15:06:34.776288,-11.53
2026-06-16 15:06:34.783912,6.44
2026-06-16 15:06:34.792458,16.36
2026-06-16 15:06:34.793331,16.27
2026-06-16 15:06:34.808254,-5.7
2026-06-16 15:06:34.810207,-26.56
2026-06-16 15:06:34.823986,-61.26
2026-06-16 15:06:34.826954,-67.92
2026-06-16 15:06:34.840204,-19.82
2026-06-16 15:06:34.842749,20.08
2026-06-16 15:06:34.842749,20.98
2026-06-16 15:06:34.859306,-34.85
2026-06-16 15:06:34.859306,-62.53
2026-06-16 15:06:34.875676,-21.42
2026-06-16 15:06:34.884528,13.51
2026-06-16 15:06:34.893352,-3.48
2026-06-16 15:06:34.893352,-14.4
2026-06-16 15:06:34.909662,33.43
2026-06-16 15:06:34.916379,86.0
2026-06-16 15:06:34.925289,34.82
2026-06-16 15:06:34.925289,-48.93
2026-06-16 15:06:34.941414,-101.42
2026-06-16 15:06:34.942277,-53.16
2026-06-16 15:06:34.957228,24.72
2026-06-16 15:06:34.959241,35.54
2026-06-16 15:06:34.959241,0.54
2026-06-16 15:06:34.977536,-53.19
2026-06-16 15:06:34.984771,-73.82
2026-06-16 15:06:34.992362,-48.58
2026-06-16 15:06:34.992362,0.42
2026-06-16 15:06:35.009166,45.19
2026-06-16 15:06:35.009166,39.99
2026-06-16 15:06:35.026677,-7.97
2026-06-16 15:06:35.026677,-34.79
2026-06-16 15:06:35.042585,-33.62
2026-06-16 15:06:35.043335,48.13
2026-06-16 15:06:35.058252,133.46
2026-06-16 15:06:35.060230,155.68
2026-06-16 15:06:35.073884,81.27
2026-06-16 15:06:35.077434,-7.69
2026-06-16 15:06:35.090228,-32.53
2026-06-16 15:06:35.092852,1.47
2026-06-16 15:06:35.092852,42.25
2026-06-16 15:06:35.109455,40.05
2026-06-16 15:06:35.109455,23.93
2026-06-16 15:06:35.126367,43.71
2026-06-16 15:06:35.126367,42.5
2026-06-16 15:06:35.142493,2.49
2026-06-16 15:06:35.142493,-30.36
2026-06-16 15:06:35.159890,-28.22
2026-06-16 15:06:35.159890,22.67
2026-06-16 15:06:35.175870,23.55
2026-06-16 15:06:35.176715,-14.38
2026-06-16 15:06:35.190968,-29.23
2026-06-16 15:06:35.191962,-12.17
2026-06-16 15:06:35.206858,0.83
2026-06-16 15:06:35.208900,-19.08
2026-06-16 15:06:35.223161,-25.95
2026-06-16 15:06:35.225088,-16.86
2026-06-16 15:06:35.225088,2.13
2026-06-16 15:06:35.242495,3.11
2026-06-16 15:06:35.242495,3.09
2026-06-16 15:06:35.260445,117.5
2026-06-16 15:06:35.260445,295.02
2026-06-16 15:06:35.276361,300.51
2026-06-16 15:06:35.276361,74.14
2026-06-16 15:06:35.292496,-217.77
2026-06-16 15:06:35.292496,-296.28
2026-06-16 15:06:35.308082,-138.58
2026-06-16 15:06:35.310071,30.27
2026-06-16 15:06:35.323796,48.02
2026-06-16 15:06:35.326152,-15.9
2026-06-16 15:06:35.340255,-43.68
2026-06-16 15:06:35.343231,-53.41
2026-06-16 15:06:35.343231,-54.14
2026-06-16 15:06:35.359425,0.86
2026-06-16 15:06:35.359425,16.78
2026-06-16 15:06:35.375297,-29.08
2026-06-16 15:06:35.386149,-39.88
2026-06-16 15:06:35.392730,-6.84
2026-06-16 15:06:35.400772,42.94
2026-06-16 15:06:35.408075,20.84
2026-06-16 15:06:35.408075,-15.09
2026-06-16 15:06:35.425215,2.9
2026-06-16 15:06:35.425215,31.74
2026-06-16 15:06:35.441368,35.56
2026-06-16 15:06:35.442304,33.39
2026-06-16 15:06:35.456961,57.1
2026-06-16 15:06:35.459595,81.69
2026-06-16 15:06:35.459595,49.45
2026-06-16 15:06:35.474834,18.35
2026-06-16 15:06:35.486636,16.27
2026-06-16 15:06:35.492190,46.04
2026-06-16 15:06:35.497835,90.59
2026-06-16 15:06:35.508904,102.07
2026-06-16 15:06:35.508904,109.52
2026-06-16 15:06:35.525530,100.02
2026-06-16 15:06:35.525530,103.5
2026-06-16 15:06:35.542135,118.9
2026-06-16 15:06:35.542135,100.4
2026-06-16 15:06:35.557901,40.2
2026-06-16 15:06:35.559565,-22.69
2026-06-16 15:06:35.573720,-64.37
2026-06-16 15:06:35.576147,-79.97
2026-06-16 15:06:35.590103,-85.54
2026-06-16 15:06:35.592629,-106.0
2026-06-16 15:06:35.592629,-174.13
2026-06-16 15:06:35.609214,-227.98
2026-06-16 15:06:35.609214,-186.05
2026-06-16 15:06:35.626037,-105.52
2026-06-16 15:06:35.626037,-37.33
2026-06-16 15:06:35.642138,-55.05
2026-06-16 15:06:35.642138,-90.6
2026-06-16 15:06:35.659424,-88.15
2026-06-16 15:06:35.659424,-57.86
2026-06-16 15:06:35.675683,-22.75
2026-06-16 15:06:35.675683,1.24
2026-06-16 15:06:35.691323,20.14
2026-06-16 15:06:35.693270,32.98
2026-06-16 15:06:35.707024,5.95
2026-06-16 15:06:35.710031,1.94
2026-06-16 15:06:35.723302,15.86
2026-06-16 15:06:35.726157,39.66
2026-06-16 15:06:35.726157,65.33
2026-06-16 15:06:35.742773,53.06
2026-06-16 15:06:35.742773,41.85
2026-06-16 15:06:35.759866,29.7
2026-06-16 15:06:35.759866,27.57
2026-06-16 15:06:35.776218,23.45
2026-06-16 15:06:35.776218,22.34
2026-06-16 15:06:35.792605,56.05
2026-06-16 15:06:35.792605,85.62
2026-06-16 15:06:35.808049,62.31
2026-06-16 15:06:35.810378,41.1
2026-06-16 15:06:35.823765,50.85
2026-06-16 15:06:35.826286,123.23
2026-06-16 15:06:35.840281,149.48
2026-06-16 15:06:35.843180,96.99
2026-06-16 15:06:35.843180,41.78
2026-06-16 15:06:35.859172,15.7
2026-06-16 15:06:35.859172,25.57
2026-06-16 15:06:35.875996,-14.35
2026-06-16 15:06:35.875996,-66.02
2026-06-16 15:06:35.892240,-71.66
2026-06-16 15:06:35.892240,-55.38
2026-06-16 15:06:35.910106,-47.15
2026-06-16 15:06:35.915297,-70.79
2026-06-16 15:06:35.925732,-89.34
2026-06-16 15:06:35.928874,-40.14
2026-06-16 15:06:35.941121,7.82
2026-06-16 15:06:35.942888,12.76
2026-06-16 15:06:35.956599,-23.13
2026-06-16 15:06:35.958615,-29.98
2026-06-16 15:06:35.973236,-6.94
2026-06-16 15:06:35.976122,12.99
2026-06-16 15:06:35.976122,26.86
2026-06-16 15:06:35.991654,11.8
2026-06-16 15:06:35.991654,11.74
2026-06-16 15:06:36.008463,29.59
2026-06-16 15:06:36.019675,39.39
2026-06-16 15:06:36.025581,35.22
2026-06-16 15:06:36.025581,17.13
2026-06-16 15:06:36.040713,-16.79
2026-06-16 15:06:36.040713,5.19
2026-06-16 15:06:36.058333,28.05
2026-06-16 15:06:36.058333,38.85
2026-06-16 15:06:36.074141,18.76
2026-06-16 15:06:36.075206,19.66
2026-06-16 15:06:36.089846,47.42
2026-06-16 15:06:36.092847,60.12
2026-06-16 15:06:36.092847,46.88
2026-06-16 15:06:36.108716,18.79
2026-06-16 15:06:36.108716,32.62
2026-06-16 15:06:36.126125,78.23
2026-06-16 15:06:36.126125,82.81
2026-06-16 15:06:36.142644,52.55
2026-06-16 15:06:36.142644,20.45
2026-06-16 15:06:36.159310,12.39
2026-06-16 15:06:36.159310,26.25
2026-06-16 15:06:36.175500,0.25
2026-06-16 15:06:36.176082,-27.61
2026-06-16 15:06:36.191160,-50.36
2026-06-16 15:06:36.192542,-56.07
2026-06-16 15:06:36.206980,-51.81
2026-06-16 15:06:36.210690,-49.56
2026-06-16 15:06:36.223131,-20.46
2026-06-16 15:06:36.225144,-4.44
2026-06-16 15:06:36.225144,-3.42
2026-06-16 15:06:36.241561,-0.42
2026-06-16 15:06:36.241561,-5.39
2026-06-16 15:06:36.259312,6.57
2026-06-16 15:06:36.259312,6.54
2026-06-16 15:06:36.275323,-15.38
2026-06-16 15:06:36.275323,-11.32
2026-06-16 15:06:36.292399,-16.24
2026-06-16 15:06:36.297588,-7.21
2026-06-16 15:06:36.307878,-9.16
2026-06-16 15:06:36.309442,0.83
2026-06-16 15:06:36.323446,9.79
2026-06-16 15:06:36.326481,-5.19
2026-06-16 15:06:36.340264,-30.04
2026-06-16 15:06:36.343119,-80.63
2026-06-16 15:06:36.343119,-99.13
2026-06-16 15:06:36.359176,-61.82
2026-06-16 15:06:36.359176,-25.69
2026-06-16 15:06:36.374890,85.87
2026-06-16 15:06:36.374890,240.66
2026-06-16 15:06:36.391892,279.26
2026-06-16 15:06:36.391892,141.55
2026-06-16 15:06:36.407776,-102.93
2026-06-16 15:06:36.407776,-222.81
2026-06-16 15:06:36.424439,-170.95
2026-06-16 15:06:36.424439,-44.73
2026-06-16 15:06:36.441001,9.22
2026-06-16 15:06:36.442021,-17.69
2026-06-16 15:06:36.456706,1.31
2026-06-16 15:06:36.458718,10.26
2026-06-16 15:06:36.473028,-33.58
2026-06-16 15:06:36.475842,-63.26
2026-06-16 15:06:36.475842,-38.07
2026-06-16 15:06:36.491859,36.75
2026-06-16 15:06:36.491859,64.42
2026-06-16 15:06:36.509339,5.4
2026-06-16 15:06:36.509339,-42.39
2026-06-16 15:06:36.526856,-43.17
2026-06-16 15:06:36.534470,-4.15
2026-06-16 15:06:36.541731,-8.11
2026-06-16 15:06:36.541731,-2.1
2026-06-16 15:06:36.557967,65.57
2026-06-16 15:06:36.559720,106.04
2026-06-16 15:06:36.573475,86.6
2026-06-16 15:06:36.576482,55.32
2026-06-16 15:06:36.590098,57.04
2026-06-16 15:06:36.592778,101.53
2026-06-16 15:06:36.592778,134.85
2026-06-16 15:06:36.609179,154.08
2026-06-16 15:06:36.609179,140.37
2026-06-16 15:06:36.625720,116.78
2026-06-16 15:06:36.625720,117.19
2026-06-16 15:06:36.641868,105.66
2026-06-16 15:06:36.641868,107.13
2026-06-16 15:06:36.659651,88.68
2026-06-16 15:06:36.665086,71.32
2026-06-16 15:06:36.675429,47.08
2026-06-16 15:06:36.676312,-8.87
2026-06-16 15:06:36.691176,-46.64
2026-06-16 15:06:36.693004,-85.21
2026-06-16 15:06:36.706941,-147.47
2026-06-16 15:06:36.709965,-209.41
2026-06-16 15:06:36.723075,-272.05
2026-06-16 15:06:36.725513,-274.67
2026-06-16 15:06:36.725513,-213.59
2026-06-16 15:06:36.742150,-138.9
2026-06-16 15:06:36.742150,-70.54
2026-06-16 15:06:36.758885,-58.25
2026-06-16 15:06:36.758885,-84.82
2026-06-16 15:06:36.775087,-137.13
2026-06-16 15:06:36.775087,-130.48
2026-06-16 15:06:36.792383,-77.09
2026-06-16 15:06:36.792383,-38.9
2026-06-16 15:06:36.807673,7.07
2026-06-16 15:06:36.809435,25.94
2026-06-16 15:06:36.824186,2.92
2026-06-16 15:06:36.825604,-16.0
2026-06-16 15:06:36.840261,-29.85
2026-06-16 15:06:36.843164,1.15
2026-06-16 15:06:36.843164,46.91
2026-06-16 15:06:36.859086,61.6
2026-06-16 15:06:36.859086,60.3
2026-06-16 15:06:36.875146,14.23
2026-06-16 15:06:36.875146,-8.73
2026-06-16 15:06:36.892518,-26.59
2026-06-16 15:06:36.892518,-17.51
2026-06-16 15:06:36.909628,8.45
2026-06-16 15:06:36.909628,9.4
2026-06-16 15:06:36.924818,-0.59
2026-06-16 15:06:36.924818,15.33
2026-06-16 15:06:36.941007,61.02
2026-06-16 15:06:36.942994,116.44
2026-06-16 15:06:36.956796,106.9
2026-06-16 15:06:36.959838,57.61
2026-06-16 15:06:36.972934,-3.37
2026-06-16 15:06:36.976030,-47.13
2026-06-16 15:06:36.976030,-57.84
2026-06-16 15:06:36.992226,-101.33
2026-06-16 15:06:36.992226,-142.62
2026-06-16 15:06:37.008847,-177.72
2026-06-16 15:06:37.008847,-173.85
2026-06-16 15:06:37.025832,-140.15
2026-06-16 15:06:37.034775,-99.65
2026-06-16 15:06:37.042829,-64.32
2026-06-16 15:06:37.049097,-47.09
2026-06-16 15:06:37.057587,-48.84
2026-06-16 15:06:37.058926,-28.7
2026-06-16 15:06:37.073267,-10.64
2026-06-16 15:06:37.075656,44.14
2026-06-16 15:06:37.090602,92.67
2026-06-16 15:06:37.095017,90.22
2026-06-16 15:06:37.106010,82.8
2026-06-16 15:06:37.108425,85.37
2026-06-16 15:06:37.108425,110.81
2026-06-16 15:06:37.125162,116.23
2026-06-16 15:06:37.125162,103.71
2026-06-16 15:06:37.142843,78.32
2026-06-16 15:06:37.142843,-11.63
2026-06-16 15:06:37.158467,-130.97
2026-06-16 15:06:37.158467,-190.01
2026-06-16 15:06:37.175133,-167.17
2026-06-16 15:06:37.176009,-115.59
2026-06-16 15:06:37.190795,-150.83
2026-06-16 15:06:37.192464,-198.83
