PC_Timestamp,ECG
2026-06-16 15:17:44.242690,488.23
2026-06-16 15:17:44.245645,72.87
2026-06-16 15:17:44.245645,-107.59
2026-06-16 15:17:44.262480,-595.6
2026-06-16 15:17:44.262480,-695.11
2026-06-16 15:17:44.278988,435.7
2026-06-16 15:17:44.278988,1171.82
2026-06-16 15:17:44.296817,-187.24
2026-06-16 15:17:44.304851,-3636.97
2026-06-16 15:17:44.312206,-6574.93
2026-06-16 15:17:44.312206,-7049.5
2026-06-16 15:17:44.328330,-5599.36
2026-06-16 15:17:44.329287,-3777.38
2026-06-16 15:17:44.344011,-3322.69
2026-06-16 15:17:44.346147,-3330.95
2026-06-16 15:17:44.346147,-2571.03
2026-06-16 15:17:44.362668,-490.56
2026-06-16 15:17:44.362668,2753.6
2026-06-16 15:17:44.379158,5438.27
2026-06-16 15:17:44.379158,6644.88
2026-06-16 15:17:44.396049,5300.25
2026-06-16 15:17:44.396049,2435.01
2026-06-16 15:17:44.412654,429.85
2026-06-16 15:17:44.412654,-681.72
2026-06-16 15:17:44.429552,-1429.54
2026-06-16 15:17:44.431630,-2737.78
2026-06-16 15:17:44.445505,-4597.68
2026-06-16 15:17:44.445505,-5515.96
2026-06-16 15:17:44.461669,-4841.63
2026-06-16 15:17:44.462323,-3428.4
2026-06-16 15:17:44.477277,-2716.75
2026-06-16 15:17:44.482629,-2773.81
2026-06-16 15:17:44.492955,-3124.11
2026-06-16 15:17:44.495390,-2918.45
2026-06-16 15:17:44.508198,-1262.1
2026-06-16 15:17:44.512571,-79.7
2026-06-16 15:17:44.512571,-1083.26
2026-06-16 15:17:44.529150,-3164.36
2026-06-16 15:17:44.529150,-4791.28
2026-06-16 15:17:44.546005,-5565.32
2026-06-16 15:17:44.546005,-6321.55
2026-06-16 15:17:44.562521,-7623.24
2026-06-16 15:17:44.562521,-9278.62
2026-06-16 15:17:44.578357,-10093.89
2026-06-16 15:17:44.579045,-9848.4
2026-06-16 15:17:44.594384,-10330.49
2026-06-16 15:17:44.595408,-12025.06
2026-06-16 15:17:44.610137,-13565.89
2026-06-16 15:17:44.612349,-13432.39
2026-06-16 15:17:44.612349,-11226.98
2026-06-16 15:17:44.629134,-8274.4
2026-06-16 15:17:44.629134,-6588.29
2026-06-16 15:17:44.645854,-6391.17
2026-06-16 15:17:44.645854,-6304.49
2026-06-16 15:17:44.662449,-5358.57
2026-06-16 15:17:44.662449,-3659.18
2026-06-16 15:17:44.679330,-2155.35
2026-06-16 15:17:44.679330,-930.67
2026-06-16 15:17:44.695583,374.45
2026-06-16 15:17:44.695583,1804.38
2026-06-16 15:17:44.711927,2994.33
2026-06-16 15:17:44.712544,3632.08
2026-06-16 15:17:44.727197,4133.31
2026-06-16 15:17:44.729304,4436.02
2026-06-16 15:17:44.729304,4540.21
2026-06-16 15:17:44.745678,4304.57
2026-06-16 15:17:44.745678,3855.2
2026-06-16 15:17:44.762307,3787.17
2026-06-16 15:17:44.762307,3879.68
2026-06-16 15:17:44.778932,3736.9
2026-06-16 15:17:44.778932,2901.32
2026-06-16 15:17:44.795915,1653.01
2026-06-16 15:17:44.795915,1046.75
2026-06-16 15:17:44.812531,1453.45
2026-06-16 15:17:44.816548,2350.63
2026-06-16 15:17:44.829193,3021.45
2026-06-16 15:17:44.829193,3315.79
2026-06-16 15:17:44.843941,3422.59
2026-06-16 15:17:44.845697,3557.71
2026-06-16 15:17:44.845697,3734.94
2026-06-16 15:17:44.862295,3816.76
2026-06-16 15:17:44.862295,3804.65
2026-06-16 15:17:44.878951,3792.59
2026-06-16 15:17:44.878951,3813.42
2026-06-16 15:17:44.895787,3829.18
2026-06-16 15:17:44.895787,3737.4
2026-06-16 15:17:44.912160,3623.19
2026-06-16 15:17:44.912160,3648.86
2026-06-16 15:17:44.929094,3761.95
2026-06-16 15:17:44.929094,3809.81
2026-06-16 15:17:44.945869,3709.17
2026-06-16 15:17:44.945869,3605.05
2026-06-16 15:17:44.961536,3649.71
2026-06-16 15:17:44.962522,3786.69
2026-06-16 15:17:44.977054,3907.05
2026-06-16 15:17:44.978887,3973.09
2026-06-16 15:17:44.978887,3956.21
2026-06-16 15:17:44.995325,3946.38
2026-06-16 15:17:44.995325,3978.38
2026-06-16 15:17:45.012526,3965.46
2026-06-16 15:17:45.012526,3896.87
2026-06-16 15:17:45.029158,3872.41
2026-06-16 15:17:45.029158,3974.44
2026-06-16 15:17:45.045633,4068.0
2026-06-16 15:17:45.045633,4057.61
2026-06-16 15:17:45.062200,4007.47
2026-06-16 15:17:45.062200,4060.07
2026-06-16 15:17:45.078708,4134.29
2026-06-16 15:17:45.080623,4103.67
2026-06-16 15:17:45.093750,4015.49
2026-06-16 15:17:45.095331,4029.25
2026-06-16 15:17:45.110372,4087.71
2026-06-16 15:17:45.112212,4087.17
2026-06-16 15:17:45.112212,4019.97
2026-06-16 15:17:45.128719,3972.01
2026-06-16 15:17:45.141242,3877.52
2026-06-16 15:17:45.146190,3674.06
2026-06-16 15:17:45.154094,3527.33
2026-06-16 15:17:45.162041,3521.64
2026-06-16 15:17:45.162041,3501.04
2026-06-16 15:17:45.178653,3338.27
2026-06-16 15:17:45.178653,3144.47
2026-06-16 15:17:45.195696,3078.0
2026-06-16 15:17:45.195696,3071.56
2026-06-16 15:17:45.211434,2985.56
2026-06-16 15:17:45.212000,2846.26
2026-06-16 15:17:45.227438,2714.62
2026-06-16 15:17:45.229131,2601.54
2026-06-16 15:17:45.237190,2434.31
2026-06-16 15:17:45.246054,2300.75
2026-06-16 15:17:45.246054,2236.51
2026-06-16 15:17:45.264625,2099.96
2026-06-16 15:17:45.273261,1858.62
2026-06-16 15:17:45.281769,1620.48
2026-06-16 15:17:45.285815,1490.98
2026-06-16 15:17:45.295324,1384.03
2026-06-16 15:17:45.295324,1233.83
2026-06-16 15:17:45.312357,1065.47
2026-06-16 15:17:45.312357,989.5
2026-06-16 15:17:45.328565,967.64
2026-06-16 15:17:45.328565,857.33
2026-06-16 15:17:45.343679,624.2
2026-06-16 15:17:45.345698,389.24
2026-06-16 15:17:45.345698,222.12
2026-06-16 15:17:45.362069,62.81
2026-06-16 15:17:45.362069,-150.44
2026-06-16 15:17:45.378570,-343.71
2026-06-16 15:17:45.378570,-452.44
2026-06-16 15:17:45.395338,-463.11
2026-06-16 15:17:45.395338,-476.71
2026-06-16 15:17:45.412687,-561.89
2026-06-16 15:17:45.412687,-673.51
2026-06-16 15:17:45.428649,-808.44
2026-06-16 15:17:45.428649,-956.64
2026-06-16 15:17:45.445781,-1101.1
2026-06-16 15:17:45.445781,-1203.06
2026-06-16 15:17:45.461578,-1289.58
2026-06-16 15:17:45.462069,-1407.5
2026-06-16 15:17:45.477112,-1505.94
2026-06-16 15:17:45.478860,-1553.13
2026-06-16 15:17:45.478860,-1619.0
2026-06-16 15:17:45.495208,-1733.29
2026-06-16 15:17:45.495208,-1877.85
2026-06-16 15:17:45.512067,-1955.03
2026-06-16 15:17:45.512067,-1942.27
2026-06-16 15:17:45.528593,-1937.53
2026-06-16 15:17:45.538815,-1960.68
2026-06-16 15:17:45.545385,-1998.63
2026-06-16 15:17:45.545385,-2037.39
2026-06-16 15:17:45.562391,-2064.02
2026-06-16 15:17:45.562391,-2055.69
2026-06-16 15:17:45.578158,-2053.37
2026-06-16 15:17:45.579030,-2091.86
2026-06-16 15:17:45.593722,-2129.16
2026-06-16 15:17:45.595859,-2114.54
2026-06-16 15:17:45.610384,-2032.32
2026-06-16 15:17:45.612363,-1905.75
2026-06-16 15:17:45.612363,-1858.41
2026-06-16 15:17:45.629289,-1881.95
2026-06-16 15:17:45.629289,-1874.53
2026-06-16 15:17:45.645164,-1783.57
2026-06-16 15:17:45.645164,-1648.29
2026-06-16 15:17:45.662286,-1564.43
2026-06-16 15:17:45.662286,-1571.53
2026-06-16 15:17:45.678642,-1584.57
2026-06-16 15:17:45.678642,-1567.69
2026-06-16 15:17:45.695665,-1559.85
2026-06-16 15:17:45.695665,-1591.85
2026-06-16 15:17:45.711433,-1605.78
2026-06-16 15:17:45.712772,-1568.9
2026-06-16 15:17:45.726915,-1534.19
2026-06-16 15:17:45.728843,-1533.48
2026-06-16 15:17:45.728843,-1533.77
2026-06-16 15:17:45.750728,-1432.58
2026-06-16 15:17:45.756246,-1339.84
2026-06-16 15:17:45.762349,-1344.09
2026-06-16 15:17:45.762349,-1382.14
2026-06-16 15:17:45.778929,-1321.5
2026-06-16 15:17:45.778929,-1114.9
2026-06-16 15:17:45.795810,-962.06
2026-06-16 15:17:45.795810,-948.3
2026-06-16 15:17:45.811976,-892.81
2026-06-16 15:17:45.820536,-764.97
2026-06-16 15:17:45.828511,-697.46
2026-06-16 15:17:45.828511,-673.08
2026-06-16 15:17:45.844573,-578.18
2026-06-16 15:17:45.845585,-355.39
2026-06-16 15:17:45.860223,-186.45
2026-06-16 15:17:45.862159,-144.73
2026-06-16 15:17:45.873714,-148.98
2026-06-16 15:17:45.878412,-13.91
2026-06-16 15:17:45.878412,265.76
2026-06-16 15:17:45.895249,476.36
2026-06-16 15:17:45.895249,688.9
2026-06-16 15:17:45.912002,900.38
2026-06-16 15:17:45.912002,1053.08
2026-06-16 15:17:45.928623,1185.13
2026-06-16 15:17:45.928623,1328.45
2026-06-16 15:17:45.945325,1535.74
2026-06-16 15:17:45.945325,1721.09
2026-06-16 15:17:45.961214,1825.91
2026-06-16 15:17:45.962106,1885.44
2026-06-16 15:17:45.976840,1988.45
2026-06-16 15:17:45.978856,2150.64
2026-06-16 15:17:45.978856,2231.43
2026-06-16 15:17:45.995438,2242.16
2026-06-16 15:17:45.995438,2206.07
2026-06-16 15:17:46.012283,2095.54
2026-06-16 15:17:46.023363,1911.93
2026-06-16 15:17:46.028830,1717.3
2026-06-16 15:17:46.028830,1592.3
2026-06-16 15:17:46.045555,1523.65
2026-06-16 15:17:46.045555,1492.15
2026-06-16 15:17:46.062052,1473.74
2026-06-16 15:17:46.062052,1431.55
2026-06-16 15:17:46.078534,1304.0
2026-06-16 15:17:46.078534,1112.41
2026-06-16 15:17:46.094558,907.84
2026-06-16 15:17:46.095641,773.95
2026-06-16 15:17:46.110268,752.18
2026-06-16 15:17:46.112047,815.08
2026-06-16 15:17:46.112047,759.26
2026-06-16 15:17:46.128880,466.92
2026-06-16 15:17:46.128880,131.26
2026-06-16 15:17:46.145087,27.12
2026-06-16 15:17:46.145087,226.98
2026-06-16 15:17:46.162587,553.2
2026-06-16 15:17:46.162587,849.93
2026-06-16 15:17:46.178952,1031.75
2026-06-16 15:17:46.178952,1066.39
2026-06-16 15:17:46.195708,946.63
2026-06-16 15:17:46.195708,814.54
2026-06-16 15:17:46.211248,847.28
2026-06-16 15:17:46.218839,1001.25
2026-06-16 15:17:46.226837,1075.84
2026-06-16 15:17:46.228590,978.92
2026-06-16 15:17:46.228590,815.82
2026-06-16 15:17:46.245489,678.41
2026-06-16 15:17:46.257163,590.45
2026-06-16 15:17:46.266241,534.76
2026-06-16 15:17:46.267992,470.4
2026-06-16 15:17:46.278697,405.36
2026-06-16 15:17:46.278697,354.58
2026-06-16 15:17:46.295694,275.19
2026-06-16 15:17:46.295694,200.19
2026-06-16 15:17:46.311993,134.51
2026-06-16 15:17:46.311993,136.82
2026-06-16 15:17:46.327953,182.91
2026-06-16 15:17:46.332828,273.53
2026-06-16 15:17:46.344498,385.59
2026-06-16 15:17:46.345262,479.18
2026-06-16 15:17:46.360126,497.68
2026-06-16 15:17:46.362145,372.81
2026-06-16 15:17:46.362145,192.84
2026-06-16 15:17:46.378531,72.48
2026-06-16 15:17:46.378531,59.18
2026-06-16 15:17:46.395561,105.65
2026-06-16 15:17:46.395561,63.33
2026-06-16 15:17:46.412153,-96.19
2026-06-16 15:17:46.412153,-242.96
2026-06-16 15:17:46.428450,-257.67
2026-06-16 15:17:46.428450,-168.82
2026-06-16 15:17:46.445420,-159.02
2026-06-16 15:17:46.445420,-255.74
2026-06-16 15:17:46.461112,-390.77
2026-06-16 15:17:46.462102,-424.64
2026-06-16 15:17:46.476767,-356.85
2026-06-16 15:17:46.478519,-316.26
2026-06-16 15:17:46.478519,-342.54
2026-06-16 15:17:46.495974,-366.69
2026-06-16 15:17:46.495974,-345.96
2026-06-16 15:17:46.511720,-319.35
2026-06-16 15:17:46.511720,-325.71
2026-06-16 15:17:46.528231,-334.04
2026-06-16 15:17:46.528231,-267.69
2026-06-16 15:17:46.544969,-164.86
2026-06-16 15:17:46.544969,-106.33
2026-06-16 15:17:46.561900,-93.86
2026-06-16 15:17:46.561900,-76.47
2026-06-16 15:17:46.577691,-115.89
2026-06-16 15:17:46.577691,-220.78
2026-06-16 15:17:46.593549,-317.19
2026-06-16 15:17:46.596152,-287.74
2026-06-16 15:17:46.610165,-170.88
2026-06-16 15:17:46.612749,-96.4
2026-06-16 15:17:46.612749,-103.87
2026-06-16 15:17:46.628646,-95.4
2026-06-16 15:17:46.628646,-72.03
2026-06-16 15:17:46.644968,-104.51
2026-06-16 15:17:46.644968,-168.66
2026-06-16 15:17:46.661957,-184.73
2026-06-16 15:17:46.661957,-145.0
2026-06-16 15:17:46.678307,-136.32
2026-06-16 15:17:46.678307,-167.48
2026-06-16 15:17:46.696076,-171.61
2026-06-16 15:17:46.699378,-78.22
2026-06-16 15:17:46.711111,-38.03
2026-06-16 15:17:46.711867,-109.48
2026-06-16 15:17:46.726366,-159.68
2026-06-16 15:17:46.728210,-96.19
2026-06-16 15:17:46.728210,2.79
2026-06-16 15:17:46.745132,38.6
2026-06-16 15:17:46.745132,8.55
2026-06-16 15:17:46.761902,35.38
2026-06-16 15:17:46.773898,102.86
2026-06-16 15:17:46.780303,69.51
2026-06-16 15:17:46.780303,-33.32
2026-06-16 15:17:46.796517,-69.97
2026-06-16 15:17:46.796517,-16.89
2026-06-16 15:17:46.811685,3.1
2026-06-16 15:17:46.811685,-10.85
2026-06-16 15:17:46.828152,-49.6
2026-06-16 15:17:46.828152,-57.31
2026-06-16 15:17:46.844289,-35.13
2026-06-16 15:17:46.844960,-7.1
2026-06-16 15:17:46.859923,48.66
2026-06-16 15:17:46.861732,144.93
2026-06-16 15:17:46.861732,168.09
2026-06-16 15:17:46.877939,87.65
2026-06-16 15:17:46.877939,17.56
2026-06-16 15:17:46.896521,0.55
2026-06-16 15:17:46.896521,39.36
2026-06-16 15:17:46.911552,115.77
2026-06-16 15:17:46.911552,190.82
2026-06-16 15:17:46.928409,223.69
2026-06-16 15:17:46.928409,235.51
2026-06-16 15:17:46.945252,224.38
2026-06-16 15:17:46.945252,239.18
2026-06-16 15:17:46.961014,271.81
2026-06-16 15:17:46.962222,292.34
2026-06-16 15:17:46.976585,280.93
2026-06-16 15:17:46.978096,287.49
2026-06-16 15:17:46.978096,301.97
2026-06-16 15:17:46.996639,304.44
2026-06-16 15:17:46.996639,306.9
2026-06-16 15:17:47.011808,325.26
2026-06-16 15:17:47.011808,384.33
2026-06-16 15:17:47.028108,419.23
2026-06-16 15:17:47.028108,377.33
2026-06-16 15:17:47.044909,302.81
2026-06-16 15:17:47.044909,297.31
2026-06-16 15:17:47.061777,307.77
2026-06-16 15:17:47.061777,291.3
2026-06-16 15:17:47.078058,248.06
2026-06-16 15:17:47.078058,227.91
2026-06-16 15:17:47.094264,213.84
2026-06-16 15:17:47.096608,170.98
2026-06-16 15:17:47.109941,104.45
2026-06-16 15:17:47.111974,94.98
2026-06-16 15:17:47.111974,153.21
2026-06-16 15:17:47.128486,168.36
2026-06-16 15:17:47.128486,108.81
2026-06-16 15:17:47.145850,52.55
2026-06-16 15:17:47.145850,82.14
2026-06-16 15:17:47.161897,148.39
2026-06-16 15:17:47.161897,163.57
2026-06-16 15:17:47.178567,77.18
2026-06-16 15:17:47.178567,-10.77
2026-06-16 15:17:47.195103,-39.57
2026-06-16 15:17:47.196621,-16.48
2026-06-16 15:17:47.210929,-23.37
2026-06-16 15:17:47.211930,-29.22
2026-06-16 15:17:47.226590,-8.18
2026-06-16 15:17:47.228457,47.58
2026-06-16 15:17:47.243159,75.2
2026-06-16 15:17:47.245044,82.79
2026-06-16 15:17:47.245044,112.22
2026-06-16 15:17:47.262548,135.54
2026-06-16 15:17:47.262548,117.95
2026-06-16 15:17:47.281095,69.6
2026-06-16 15:17:47.289269,66.27
2026-06-16 15:17:47.296955,105.74
2026-06-16 15:17:47.304975,127.1
2026-06-16 15:17:47.311809,82.68
2026-06-16 15:17:47.311809,22.57
2026-06-16 15:17:47.328612,-18.34
2026-06-16 15:17:47.328612,-39.14
2026-06-16 15:17:47.344348,-21.04
2026-06-16 15:17:47.345269,56.68
2026-06-16 15:17:47.359802,136.0
2026-06-16 15:17:47.361812,157.21
2026-06-16 15:17:47.361812,116.62
2026-06-16 15:17:47.378517,98.13
2026-06-16 15:17:47.378517,156.34
2026-06-16 15:17:47.397015,177.45
2026-06-16 15:17:47.397015,90.0
2026-06-16 15:17:47.411965,-31.84
2026-06-16 15:17:47.411965,-33.67
2026-06-16 15:17:47.428443,75.94
2026-06-16 15:17:47.428443,154.17
2026-06-16 15:17:47.444992,105.64
2026-06-16 15:17:47.444992,45.41
2026-06-16 15:17:47.461451,80.01
2026-06-16 15:17:47.461451,152.24
2026-06-16 15:17:47.476566,153.47
2026-06-16 15:17:47.478179,144.74
2026-06-16 15:17:47.493057,183.82
2026-06-16 15:17:47.497008,204.79
2026-06-16 15:17:47.497008,158.0
2026-06-16 15:17:47.511779,130.34
2026-06-16 15:17:47.511779,208.3
2026-06-16 15:17:47.528121,268.94
2026-06-16 15:17:47.528121,212.88
2026-06-16 15:17:47.545057,145.15
2026-06-16 15:17:47.545057,204.12
2026-06-16 15:17:47.561732,287.67
2026-06-16 15:17:47.561732,253.4
2026-06-16 15:17:47.578045,149.65
2026-06-16 15:17:47.578045,158.85
2026-06-16 15:17:47.594332,245.62
2026-06-16 15:17:47.597487,258.32
2026-06-16 15:17:47.609755,179.42
2026-06-16 15:17:47.611506,154.64
2026-06-16 15:17:47.611506,213.57
2026-06-16 15:17:47.627916,228.42
2026-06-16 15:17:47.627916,156.63
2026-06-16 15:17:47.645084,101.12
2026-06-16 15:17:47.645084,166.29
2026-06-16 15:17:47.661936,240.08
2026-06-16 15:17:47.672406,194.11
2026-06-16 15:17:47.678439,101.6
2026-06-16 15:17:47.678439,117.01
2026-06-16 15:17:47.695825,181.1
2026-06-16 15:17:47.697906,159.3
2026-06-16 15:17:47.711488,67.96
2026-06-16 15:17:47.711488,65.63
2026-06-16 15:17:47.727410,153.85
2026-06-16 15:17:47.728075,161.04
2026-06-16 15:17:47.742952,45.81
2026-06-16 15:17:47.745275,-9.14
2026-06-16 15:17:47.745275,60.55
2026-06-16 15:17:47.761588,105.03
2026-06-16 15:17:47.761588,55.75
2026-06-16 15:17:47.777901,18.65
2026-06-16 15:17:47.777901,64.33
2026-06-16 15:17:47.796541,93.86
2026-06-16 15:17:47.804854,101.35
2026-06-16 15:17:47.811598,118.75
2026-06-16 15:17:47.811598,170.89
2026-06-16 15:17:47.828294,200.88
2026-06-16 15:17:47.834886,161.07
2026-06-16 15:17:47.844052,127.43
2026-06-16 15:17:47.844866,147.69
2026-06-16 15:17:47.859777,154.91
2026-06-16 15:17:47.861509,116.33
2026-06-16 15:17:47.861509,70.97
2026-06-16 15:17:47.877769,39.77
2026-06-16 15:17:47.877769,14.7
2026-06-16 15:17:47.898285,6.67
2026-06-16 15:17:47.898285,37.48
2026-06-16 15:17:47.911376,60.17
2026-06-16 15:17:47.911376,58.88
2026-06-16 15:17:47.927775,27.74
2026-06-16 15:17:47.927775,10.69
2026-06-16 15:17:47.944646,10.63
2026-06-16 15:17:47.944646,1.62
2026-06-16 15:17:47.960922,-25.25
2026-06-16 15:17:47.962165,-20.15
2026-06-16 15:17:47.976466,-15.07
2026-06-16 15:17:47.978390,-44.85
2026-06-16 15:17:47.992982,-80.44
2026-06-16 15:17:47.998257,-68.1
2026-06-16 15:17:47.998257,-24.97
2026-06-16 15:17:48.014589,-28.83
2026-06-16 15:17:48.014589,-61.52
2026-06-16 15:17:48.028097,-71.16
2026-06-16 15:17:48.028097,-47.92
2026-06-16 15:17:48.044256,-41.71
2026-06-16 15:17:48.044256,-54.44
2026-06-16 15:17:48.061178,-83.02
2026-06-16 15:17:48.061178,-109.47
2026-06-16 15:17:48.077796,-129.82
2026-06-16 15:17:48.077796,-127.18
2026-06-16 15:17:48.094069,-127.54
2026-06-16 15:17:48.098445,-162.72
2026-06-16 15:17:48.109712,-225.59
2026-06-16 15:17:48.111742,-214.51
2026-06-16 15:17:48.111742,-108.96
2026-06-16 15:17:48.128106,-46.73
2026-06-16 15:17:48.128106,-126.09
2026-06-16 15:17:48.144542,-275.71
2026-06-16 15:17:48.144542,-340.0
2026-06-16 15:17:48.161574,-333.33
2026-06-16 15:17:48.171553,-324.69
2026-06-16 15:17:48.178056,-318.1
2026-06-16 15:17:48.178056,-245.86
2026-06-16 15:17:48.195049,-142.15
2026-06-16 15:17:48.198599,-133.47
2026-06-16 15:17:48.211584,-213.4
2026-06-16 15:17:48.211584,-226.27
2026-06-16 15:17:48.226338,-162.45
2026-06-16 15:17:48.234748,-154.67
2026-06-16 15:17:48.242763,-233.5
2026-06-16 15:17:48.244729,-261.19
2026-06-16 15:17:48.244729,-156.4
2026-06-16 15:17:48.262041,-101.89
2026-06-16 15:17:48.262041,-170.03
2026-06-16 15:17:48.278212,-255.75
2026-06-16 15:17:48.278212,-255.46
2026-06-16 15:17:48.294711,-249.21
2026-06-16 15:17:48.298800,-286.77
2026-06-16 15:17:48.311367,-314.19
2026-06-16 15:17:48.318430,-269.84
2026-06-16 15:17:48.327755,-227.69
2026-06-16 15:17:48.327755,-233.52
2026-06-16 15:17:48.344544,-262.2
2026-06-16 15:17:48.350904,-253.93
2026-06-16 15:17:48.359454,-225.79
2026-06-16 15:17:48.361197,-177.9
2026-06-16 15:17:48.361197,-106.36
2026-06-16 15:17:48.377589,-109.81
2026-06-16 15:17:48.377589,-185.88
2026-06-16 15:17:48.398872,-248.63
2026-06-16 15:17:48.398872,-201.61
2026-06-16 15:17:48.411203,-142.9
2026-06-16 15:17:48.411203,-191.93
2026-06-16 15:17:48.428238,-286.49
2026-06-16 15:17:48.428238,-282.07
2026-06-16 15:17:48.444629,-199.07
2026-06-16 15:17:48.444629,-162.26
2026-06-16 15:17:48.461435,-215.18
2026-06-16 15:17:48.461435,-233.01
2026-06-16 15:17:48.477305,-198.01
2026-06-16 15:17:48.478662,-179.11
2026-06-16 15:17:48.492956,-244.88
2026-06-16 15:17:48.499246,-310.32
2026-06-16 15:17:48.499246,-267.97
2026-06-16 15:17:48.511429,-203.95
2026-06-16 15:17:48.511429,-189.99
2026-06-16 15:17:48.527913,-236.8
2026-06-16 15:17:48.527913,-290.35
2026-06-16 15:17:48.546183,-299.84
2026-06-16 15:17:48.554238,-258.54
2026-06-16 15:17:48.561379,-235.36
2026-06-16 15:17:48.561379,-217.27
2026-06-16 15:17:48.578668,-183.34
2026-06-16 15:17:48.583672,-137.65
2026-06-16 15:17:48.594554,-110.1
2026-06-16 15:17:48.601106,-116.51
2026-06-16 15:17:48.609595,-146.78
2026-06-16 15:17:48.611707,-149.03
2026-06-16 15:17:48.611707,-87.59
2026-06-16 15:17:48.627503,-42.37
2026-06-16 15:17:48.640645,-49.13
2026-06-16 15:17:48.644474,-69.78
2026-06-16 15:17:48.644474,-61.47
2026-06-16 15:17:48.660905,-42.26
2026-06-16 15:17:48.660905,-60.95
2026-06-16 15:17:48.677483,-138.25
2026-06-16 15:17:48.677483,-194.28
2026-06-16 15:17:48.694438,-206.24
2026-06-16 15:17:48.699508,-169.39
2026-06-16 15:17:48.711191,-151.63
2026-06-16 15:17:48.711191,-169.78
2026-06-16 15:17:48.727082,-192.81
2026-06-16 15:17:48.728078,-182.89
2026-06-16 15:17:48.742765,-133.22
2026-06-16 15:17:48.744461,-134.54
2026-06-16 15:17:48.744461,-188.59
2026-06-16 15:17:48.761099,-192.63
2026-06-16 15:17:48.761099,-83.21
2026-06-16 15:17:48.778145,22.68
2026-06-16 15:17:48.778145,-10.27
2026-06-16 15:17:48.797041,-115.69
2026-06-16 15:17:48.803571,-115.11
2026-06-16 15:17:48.811049,-36.93
2026-06-16 15:17:48.811049,-19.83
2026-06-16 15:17:48.828445,-105.3
2026-06-16 15:17:48.835043,-156.51
2026-06-16 15:17:48.844227,-117.92
2026-06-16 15:17:48.844227,-44.69
2026-06-16 15:17:48.859301,0.31
2026-06-16 15:17:48.860992,-19.6
2026-06-16 15:17:48.860992,-83.18
2026-06-16 15:17:48.877815,-128.53
2026-06-16 15:17:48.877815,-86.1
2026-06-16 15:17:48.894322,-36.91
2026-06-16 15:17:48.899557,-88.47
2026-06-16 15:17:48.911279,-186.53
2026-06-16 15:17:48.911279,-172.66
2026-06-16 15:17:48.927559,-85.24
2026-06-16 15:17:48.927559,-65.9
2026-06-16 15:17:48.944493,-145.18
2026-06-16 15:17:48.944493,-159.37
2026-06-16 15:17:48.961402,-60.07
2026-06-16 15:17:48.961402,8.88
2026-06-16 15:17:48.977080,-46.88
2026-06-16 15:17:48.978910,-122.27
2026-06-16 15:17:48.992847,-94.79
2026-06-16 15:17:48.999819,-14.72
2026-06-16 15:17:48.999819,3.27
2026-06-16 15:17:49.011988,-48.49
2026-06-16 15:17:49.011988,-121.88
2026-06-16 15:17:49.028486,-133.21
2026-06-16 15:17:49.028486,-42.0
2026-06-16 15:17:49.044690,38.81
2026-06-16 15:17:49.044690,-12.13
2026-06-16 15:17:49.061423,-197.14
2026-06-16 15:17:49.061423,-325.5
2026-06-16 15:17:49.077927,-294.03
2026-06-16 15:17:49.077927,-202.01
2026-06-16 15:17:49.093762,-182.1
2026-06-16 15:17:49.100119,-201.09
2026-06-16 15:17:49.109429,-172.22
2026-06-16 15:17:49.111445,-146.48
2026-06-16 15:17:49.111445,-217.39
2026-06-16 15:17:49.127552,-286.95
2026-06-16 15:17:49.127552,-234.77
2026-06-16 15:17:49.144557,-147.03
2026-06-16 15:17:49.144557,-155.25
2026-06-16 15:17:49.163286,-247.01
2026-06-16 15:17:49.163286,-249.76
2026-06-16 15:17:49.178408,-171.89
2026-06-16 15:17:49.178408,-128.25
2026-06-16 15:17:49.194844,-142.53
2026-06-16 15:17:49.200120,-108.98
2026-06-16 15:17:49.211419,-38.79
2026-06-16 15:17:49.211419,-25.66
2026-06-16 15:17:49.227120,-82.25
2026-06-16 15:17:49.228699,-90.79
2026-06-16 15:17:49.242711,-21.68
2026-06-16 15:17:49.244731,9.27
2026-06-16 15:17:49.244731,-57.44
2026-06-16 15:17:49.261225,-107.9
2026-06-16 15:17:49.261225,-69.55
2026-06-16 15:17:49.277809,-26.41
2026-06-16 15:17:49.277809,-41.21
2026-06-16 15:17:49.294737,-83.79
2026-06-16 15:17:49.300464,-88.34
2026-06-16 15:17:49.310998,-80.94
2026-06-16 15:17:49.310998,-87.5
2026-06-16 15:17:49.328059,-87.06
2026-06-16 15:17:49.335468,-72.69
2026-06-16 15:17:49.343955,-110.14
2026-06-16 15:17:49.351906,-180.23
2026-06-16 15:17:49.359294,-184.31
2026-06-16 15:17:49.360988,-136.62
2026-06-16 15:17:49.360988,-134.94
2026-06-16 15:17:49.377854,-205.91
2026-06-16 15:17:49.377854,-240.7
2026-06-16 15:17:49.394404,-190.74
2026-06-16 15:17:49.406394,-101.23
2026-06-16 15:17:49.411058,-54.96
2026-06-16 15:17:49.411058,-10.9
2026-06-16 15:17:49.427863,11.04
2026-06-16 15:17:49.427863,-12.89
2026-06-16 15:17:49.444695,-46.66
2026-06-16 15:17:49.444695,-28.51
2026-06-16 15:17:49.461047,-10.46
2026-06-16 15:17:49.461047,-46.23
2026-06-16 15:17:49.477010,-96.74
2026-06-16 15:17:49.478337,-97.25
2026-06-16 15:17:49.492495,-76.87
2026-06-16 15:17:49.500645,-70.51
2026-06-16 15:17:49.500645,-69.17
2026-06-16 15:17:49.511001,-53.89
2026-06-16 15:17:49.511001,-49.65
2026-06-16 15:17:49.527390,-83.23
2026-06-16 15:17:49.537975,-92.76
2026-06-16 15:17:49.544245,-79.36
2026-06-16 15:17:49.544245,-80.96
2026-06-16 15:17:49.560751,-104.43
2026-06-16 15:17:49.560751,-106.89
2026-06-16 15:17:49.577755,-111.33
2026-06-16 15:17:49.577755,-173.46
2026-06-16 15:17:49.594081,-250.21
2026-06-16 15:17:49.601003,-228.06
2026-06-16 15:17:49.609126,-153.29
2026-06-16 15:17:49.611100,-151.53
2026-06-16 15:17:49.611100,-216.44
2026-06-16 15:17:49.627507,-222.32
2026-06-16 15:17:49.627507,-109.77
2026-06-16 15:17:49.643957,-14.7
2026-06-16 15:17:49.643957,2.29
2026-06-16 15:17:49.661042,-7.67
2026-06-16 15:17:49.661042,16.25
2026-06-16 15:17:49.677415,53.98
2026-06-16 15:17:49.677415,77.59
2026-06-16 15:17:49.694076,87.15
2026-06-16 15:17:49.701114,67.81
2026-06-16 15:17:49.710810,-13.13
2026-06-16 15:17:49.710810,-70.77
2026-06-16 15:17:49.726709,-46.54
2026-06-16 15:17:49.727224,15.39
2026-06-16 15:17:49.742373,22.27
2026-06-16 15:17:49.743965,-47.49
2026-06-16 15:17:49.743965,-94.01
2026-06-16 15:17:49.760724,-84.59
2026-06-16 15:17:49.760724,-40.39
2026-06-16 15:17:49.777613,-43.17
2026-06-16 15:17:49.777613,-86.73
2026-06-16 15:17:49.794543,-117.14
2026-06-16 15:17:49.801535,-96.66
2026-06-16 15:17:49.811129,-68.32
2026-06-16 15:17:49.811129,-48.07
2026-06-16 15:17:49.827652,-55.79
2026-06-16 15:17:49.827652,-37.6
2026-06-16 15:17:49.844080,6.36
2026-06-16 15:17:49.851023,42.15
2026-06-16 15:17:49.860040,31.99
2026-06-16 15:17:49.863778,7.95
2026-06-16 15:17:49.863778,24.83
2026-06-16 15:17:49.877736,70.47
2026-06-16 15:17:49.877736,107.93
2026-06-16 15:17:49.894016,104.4
2026-06-16 15:17:49.905838,81.99
2026-06-16 15:17:49.910681,45.76
2026-06-16 15:17:49.910681,-1.23
2026-06-16 15:17:49.927259,-39.03
2026-06-16 15:17:49.927259,-24.91
2026-06-16 15:17:49.944168,-16.83
2026-06-16 15:17:49.952055,-54.55
2026-06-16 15:17:49.960712,-110.99
2026-06-16 15:17:49.960712,-121.38
2026-06-16 15:17:49.977132,-94.91
2026-06-16 15:17:49.977132,-88.46
2026-06-16 15:17:49.992281,-89.01
2026-06-16 15:17:49.993985,-98.52
2026-06-16 15:17:50.001646,-96.04
2026-06-16 15:17:50.010478,-29.89
2026-06-16 15:17:50.022635,126.48
2026-06-16 15:17:50.027338,218.38
2026-06-16 15:17:50.027338,79.98
2026-06-16 15:17:50.043770,-190.07
2026-06-16 15:17:50.043770,-260.76
2026-06-16 15:17:50.061008,-108.21
2026-06-16 15:17:50.061008,16.7
2026-06-16 15:17:50.077185,-30.14
2026-06-16 15:17:50.077185,-70.79
2026-06-16 15:17:50.094331,4.19
2026-06-16 15:17:50.101773,40.98
2026-06-16 15:17:50.109984,-32.85
2026-06-16 15:17:50.117288,-81.44
2026-06-16 15:17:50.125318,5.53
2026-06-16 15:17:50.127090,101.02
2026-06-16 15:17:50.127090,49.77
2026-06-16 15:17:50.144062,-66.89
2026-06-16 15:17:50.144062,-68.55
2026-06-16 15:17:50.160521,4.43
2026-06-16 15:17:50.160521,31.27
2026-06-16 15:17:50.177474,-37.54
2026-06-16 15:17:50.177474,-102.02
2026-06-16 15:17:50.194002,-125.39
2026-06-16 15:17:50.203735,-112.83
2026-06-16 15:17:50.210972,-124.2
2026-06-16 15:17:50.212689,-128.56
2026-06-16 15:17:50.226583,-97.07
2026-06-16 15:17:50.227323,-55.79
2026-06-16 15:17:50.242213,-11.73
2026-06-16 15:17:50.244003,18.18
2026-06-16 15:17:50.244003,21.07
2026-06-16 15:17:50.260681,18.98
2026-06-16 15:17:50.260681,43.76
2026-06-16 15:17:50.277289,73.39
2026-06-16 15:17:50.277289,85.96
2026-06-16 15:17:50.294083,66.62
2026-06-16 15:17:50.301734,60.32
2026-06-16 15:17:50.310644,63.0
2026-06-16 15:17:50.310644,62.69
2026-06-16 15:17:50.327319,50.43
2026-06-16 15:17:50.327319,62.12
2026-06-16 15:17:50.344078,90.67
2026-06-16 15:17:50.344078,70.31
2026-06-16 15:17:50.359944,17.23
2026-06-16 15:17:50.364393,-11.72
2026-06-16 15:17:50.375611,-8.67
2026-06-16 15:17:50.377659,-12.61
2026-06-16 15:17:50.377659,-30.46
2026-06-16 15:17:50.394163,-48.21
2026-06-16 15:17:50.401884,-81.8
2026-06-16 15:17:50.410732,-154.03
2026-06-16 15:17:50.410732,-167.19
2026-06-16 15:17:50.426924,-118.59
2026-06-16 15:17:50.426924,-99.09
2026-06-16 15:17:50.444010,-139.39
2026-06-16 15:17:50.447839,-148.65
2026-06-16 15:17:50.460339,-59.35
2026-06-16 15:17:50.460339,10.6
2026-06-16 15:17:50.477242,-52.14
2026-06-16 15:17:50.477242,-149.39
2026-06-16 15:17:50.492187,-105.86
2026-06-16 15:17:50.499468,-15.78
2026-06-16 15:17:50.508049,-58.48
2026-06-16 15:17:50.511419,-181.57
2026-06-16 15:17:50.511419,-186.63
2026-06-16 15:17:50.527054,-96.15
2026-06-16 15:17:50.527054,-44.92
2026-06-16 15:17:50.544229,-70.57
2026-06-16 15:17:50.544229,-41.36
2026-06-16 15:17:50.560388,37.45
2026-06-16 15:17:50.560388,48.21
2026-06-16 15:17:50.577390,-38.6
2026-06-16 15:17:50.577390,-92.14
2026-06-16 15:17:50.594071,-51.87
2026-06-16 15:17:50.594071,-7.84
2026-06-16 15:17:50.610032,-30.68
2026-06-16 15:17:50.610939,-64.36
2026-06-16 15:17:50.625565,-73.99
2026-06-16 15:17:50.627281,-77.6
2026-06-16 15:17:50.627281,-103.08
2026-06-16 15:17:50.643907,-150.32
2026-06-16 15:17:50.643907,-147.58
2026-06-16 15:17:50.660842,-102.07
2026-06-16 15:17:50.660842,-32.9
2026-06-16 15:17:50.677603,-9.85
2026-06-16 15:17:50.677603,-37.66
2026-06-16 15:17:50.693807,-52.4
2026-06-16 15:17:50.702562,-21.29
2026-06-16 15:17:50.710549,34.53
2026-06-16 15:17:50.710549,46.3
2026-06-16 15:17:50.727258,10.25
2026-06-16 15:17:50.727258,-23.63
2026-06-16 15:17:50.742118,-14.56
2026-06-16 15:17:50.744125,24.32
2026-06-16 15:17:50.744125,25.19
2026-06-16 15:17:50.761151,-24.68
2026-06-16 15:17:50.761151,-37.5
2026-06-16 15:17:50.777036,-2.48
2026-06-16 15:17:50.777036,29.37
2026-06-16 15:17:50.793808,-0.63
2026-06-16 15:17:50.802601,-17.54
2026-06-16 15:17:50.810437,36.28
2026-06-16 15:17:50.810437,92.81
2026-06-16 15:17:50.827254,51.55
2026-06-16 15:17:50.827254,-22.34
2026-06-16 15:17:50.843923,-34.16
2026-06-16 15:17:50.843923,11.78
2026-06-16 15:17:50.859819,32.61
2026-06-16 15:17:50.860613,-17.3
2026-06-16 15:17:50.875420,-79.9
2026-06-16 15:17:50.882413,-95.42
2026-06-16 15:17:50.882413,-34.25
2026-06-16 15:17:50.894133,22.64
2026-06-16 15:17:50.902702,10.59
2026-06-16 15:17:50.910485,-54.14
2026-06-16 15:17:50.910485,-55.86
2026-06-16 15:17:50.926555,31.98
2026-06-16 15:17:50.926555,98.48
2026-06-16 15:17:50.943598,68.14
2026-06-16 15:17:50.943598,20.04
2026-06-16 15:17:50.960272,16.96
2026-06-16 15:17:50.960272,41.75
2026-06-16 15:17:50.976451,40.54
2026-06-16 15:17:50.977450,29.39
2026-06-16 15:17:50.991841,37.21
2026-06-16 15:17:50.993658,19.11
2026-06-16 15:17:51.002580,18.02
2026-06-16 15:17:51.011219,74.65
2026-06-16 15:17:51.011219,143.92
2026-06-16 15:17:51.026928,92.46
2026-06-16 15:17:51.026928,-66.21
2026-06-16 15:17:51.043672,-149.46
2026-06-16 15:17:51.043672,-79.06
2026-06-16 15:17:51.060522,39.74
2026-06-16 15:17:51.060522,61.43
2026-06-16 15:17:51.077239,2.42
2026-06-16 15:17:51.077239,-16.5
2026-06-16 15:17:51.093471,11.44
2026-06-16 15:17:51.093471,24.32
2026-06-16 15:17:51.109751,-3.66
2026-06-16 15:17:51.110589,-20.56
2026-06-16 15:17:51.125488,35.27
2026-06-16 15:17:51.127290,78.87
2026-06-16 15:17:51.127290,55.59
2026-06-16 15:17:51.143801,3.57
2026-06-16 15:17:51.143801,5.54
2026-06-16 15:17:51.160663,32.38
2026-06-16 15:17:51.160663,38.19
2026-06-16 15:17:51.177277,32.03
2026-06-16 15:17:51.177277,48.78
2026-06-16 15:17:51.193879,56.5
2026-06-16 15:17:51.202847,17.41
2026-06-16 15:17:51.210553,-45.36
2026-06-16 15:17:51.210553,-23.24
2026-06-16 15:17:51.226378,39.56
2026-06-16 15:17:51.227310,16.48
2026-06-16 15:17:51.241972,-68.18
2026-06-16 15:17:51.243659,-95.7
2026-06-16 15:17:51.243659,-27.56
2026-06-16 15:17:51.260750,17.35
2026-06-16 15:17:51.260750,-27.51
2026-06-16 15:17:51.277288,-90.06
2026-06-16 15:17:51.277288,-41.85
2026-06-16 15:17:51.293610,55.87
2026-06-16 15:17:51.303238,59.57
2026-06-16 15:17:51.310564,-38.24
2026-06-16 15:17:51.310564,-89.79
2026-06-16 15:17:51.327035,-50.53
2026-06-16 15:17:51.327035,-14.46
2026-06-16 15:17:51.343630,-42.25
2026-06-16 15:17:51.343630,-50.0
2026-06-16 15:17:51.359664,0.0
2026-06-16 15:17:51.360592,23.88
2026-06-16 15:17:51.375454,25.76
2026-06-16 15:17:51.383125,36.57
2026-06-16 15:17:51.389256,52.31
2026-06-16 15:17:51.395217,6.28
2026-06-16 15:17:51.403524,-79.32
2026-06-16 15:17:51.410676,-109.77
2026-06-16 15:17:51.410676,-69.42
2026-06-16 15:17:51.427240,-66.09
2026-06-16 15:17:51.427240,-111.53
2026-06-16 15:17:51.443882,-129.88
2026-06-16 15:17:51.451914,-88.43
2026-06-16 15:17:51.460673,-74.06
2026-06-16 15:17:51.460673,-83.64
2026-06-16 15:17:51.476901,-64.32
2026-06-16 15:17:51.476901,-51.06
2026-06-16 15:17:51.492006,-59.76
2026-06-16 15:17:51.493912,-51.5
2026-06-16 15:17:51.503783,27.36
2026-06-16 15:17:51.510499,98.86
2026-06-16 15:17:51.510499,58.57
2026-06-16 15:17:51.526836,-24.31
2026-06-16 15:17:51.526836,11.63
2026-06-16 15:17:51.543973,115.05
2026-06-16 15:17:51.543973,143.33
2026-06-16 15:17:51.560554,74.96
2026-06-16 15:17:51.560554,59.66
2026-06-16 15:17:51.576903,112.09
2026-06-16 15:17:51.584963,140.39
2026-06-16 15:17:51.593288,100.88
2026-06-16 15:17:51.601328,59.58
2026-06-16 15:17:51.609673,89.13
2026-06-16 15:17:51.611320,147.39
2026-06-16 15:17:51.625290,143.67
2026-06-16 15:17:51.626968,82.26
2026-06-16 15:17:51.626968,52.99
2026-06-16 15:17:51.643825,58.7
2026-06-16 15:17:51.643825,87.26
2026-06-16 15:17:51.660526,50.01
2026-06-16 15:17:51.660526,-62.68
2026-06-16 15:17:51.677170,-160.87
2026-06-16 15:17:51.677170,-142.16
2026-06-16 15:17:51.694383,-55.87
2026-06-16 15:17:51.704155,-10.82
2026-06-16 15:17:51.710039,-17.73
2026-06-16 15:17:51.710039,-20.63
2026-06-16 15:17:51.726903,27.24
2026-06-16 15:17:51.726903,62.92
2026-06-16 15:17:51.741834,60.62
2026-06-16 15:17:51.743358,82.2
2026-06-16 15:17:51.758493,138.51
2026-06-16 15:17:51.760917,136.82
2026-06-16 15:17:51.760917,76.43
2026-06-16 15:17:51.776989,24.31
2026-06-16 15:17:51.776989,25.19
2026-06-16 15:17:51.794083,30.03
2026-06-16 15:17:51.804458,18.94
2026-06-16 15:17:51.810356,-8.02
2026-06-16 15:17:51.810356,-29.87
2026-06-16 15:17:51.826813,-69.52
2026-06-16 15:17:51.826813,-109.97
2026-06-16 15:17:51.843705,-94.49
2026-06-16 15:17:51.843705,-74.12
2026-06-16 15:17:51.859453,-104.6
2026-06-16 15:17:51.860332,-125.96
2026-06-16 15:17:51.875109,-87.52
2026-06-16 15:17:51.879180,-72.16
2026-06-16 15:17:51.879180,-148.41
2026-06-16 15:17:51.896043,-244.19
2026-06-16 15:17:51.906804,-203.17
2026-06-16 15:17:51.910051,-94.69
2026-06-16 15:17:51.910051,-47.45
2026-06-16 15:17:51.926713,-85.02
2026-06-16 15:17:51.926713,-77.63
2026-06-16 15:17:51.943458,12.3
2026-06-16 15:17:51.943458,67.96
2026-06-16 15:17:51.960386,42.75
2026-06-16 15:17:51.960386,16.66
2026-06-16 15:17:51.976525,46.43
2026-06-16 15:17:51.976525,73.06
2026-06-16 15:17:51.992783,73.69
2026-06-16 15:17:51.993487,103.17
2026-06-16 15:17:52.008409,124.55
2026-06-16 15:17:52.010027,64.23
2026-06-16 15:17:52.039268,-40.57
2026-06-16 15:17:52.053377,-127.93
2026-06-16 15:17:52.054173,-107.39
2026-06-16 15:17:52.054173,-53.12
2026-06-16 15:17:52.054173,-40.92
2026-06-16 15:17:52.063934,-83.5
2026-06-16 15:17:52.069957,-124.87
2026-06-16 15:17:52.076751,-89.42
2026-06-16 15:17:52.076751,17.49
2026-06-16 15:17:52.093379,115.91
2026-06-16 15:17:52.093379,118.32
2026-06-16 15:17:52.109463,33.15
2026-06-16 15:17:52.110152,-40.65
2026-06-16 15:17:52.125002,-33.48
2026-06-16 15:17:52.129427,6.49
2026-06-16 15:17:52.129427,43.27
2026-06-16 15:17:52.143084,37.09
2026-06-16 15:17:52.143084,43.87
2026-06-16 15:17:52.160105,72.5
2026-06-16 15:17:52.172393,112.93
2026-06-16 15:17:52.176719,134.26
2026-06-16 15:17:52.176719,130.6
2026-06-16 15:17:52.193289,136.91
2026-06-16 15:17:52.193289,140.21
2026-06-16 15:17:52.210087,81.8
2026-06-16 15:17:52.210087,6.76
2026-06-16 15:17:52.227033,-19.14
2026-06-16 15:17:52.227033,15.78
2026-06-16 15:17:52.242744,60.48
2026-06-16 15:17:52.243299,38.29
2026-06-16 15:17:52.258404,-13.65
2026-06-16 15:17:52.260498,-32.48
2026-06-16 15:17:52.260498,-2.47
2026-06-16 15:17:52.276612,0.53
2026-06-16 15:17:52.276612,-50.22
2026-06-16 15:17:52.293321,-105.69
2026-06-16 15:17:52.304803,-107.15
2026-06-16 15:17:52.310226,-89.7
2026-06-16 15:17:52.310226,-123.08
2026-06-16 15:17:52.326816,-199.08
2026-06-16 15:17:52.335905,-230.92
2026-06-16 15:17:52.343481,-223.8
2026-06-16 15:17:52.343481,-191.83
2026-06-16 15:17:52.359531,-113.26
2026-06-16 15:17:52.360301,-44.04
2026-06-16 15:17:52.375028,-16.96
2026-06-16 15:17:52.377029,-42.74
2026-06-16 15:17:52.377029,-15.66
2026-06-16 15:17:52.393271,37.15
2026-06-16 15:17:52.405199,47.91
2026-06-16 15:17:52.414499,32.74
2026-06-16 15:17:52.418112,74.37
2026-06-16 15:17:52.426549,174.49
2026-06-16 15:17:52.435263,215.41
2026-06-16 15:17:52.443472,149.66
2026-06-16 15:17:52.443472,117.07
2026-06-16 15:17:52.460923,124.45
2026-06-16 15:17:52.460923,115.86
2026-06-16 15:17:52.476557,53.59
2026-06-16 15:17:52.476557,5.57
2026-06-16 15:17:52.492759,35.39
2026-06-16 15:17:52.493675,74.02
2026-06-16 15:17:52.508352,89.57
2026-06-16 15:17:52.510057,59.27
2026-06-16 15:17:52.521116,38.08
2026-06-16 15:17:52.526984,23.96
2026-06-16 15:17:52.526984,2.94
2026-06-16 15:17:52.543180,-14.98
2026-06-16 15:17:52.543180,24.89
2026-06-16 15:17:52.559913,95.41
2026-06-16 15:17:52.559913,132.75
2026-06-16 15:17:52.578578,98.25
2026-06-16 15:17:52.584603,64.93
2026-06-16 15:17:52.593342,77.54
2026-06-16 15:17:52.593342,77.15
2026-06-16 15:17:52.609413,35.97
2026-06-16 15:17:52.610385,8.92
2026-06-16 15:17:52.625103,47.68
2026-06-16 15:17:52.627590,129.04
2026-06-16 15:17:52.627590,186.1
2026-06-16 15:17:52.643199,165.27
2026-06-16 15:17:52.643199,110.71
2026-06-16 15:17:52.660291,88.27
2026-06-16 15:17:52.660291,114.69
2026-06-16 15:17:52.676817,101.18
2026-06-16 15:17:52.686383,40.98
2026-06-16 15:17:52.693276,-27.88
2026-06-16 15:17:52.693276,-40.68
2026-06-16 15:17:52.709961,-14.6
2026-06-16 15:17:52.709961,-49.36
2026-06-16 15:17:52.726905,-104.83
2026-06-16 15:17:52.726905,-92.36
2026-06-16 15:17:52.741910,-3.35
2026-06-16 15:17:52.743391,65.32
2026-06-16 15:17:52.758200,98.83
2026-06-16 15:17:52.760131,127.19
2026-06-16 15:17:52.760131,140.48
2026-06-16 15:17:52.776884,116.9
2026-06-16 15:17:52.788262,57.61
2026-06-16 15:17:52.793259,29.46
2026-06-16 15:17:52.793259,65.13
2026-06-16 15:17:52.810155,80.72
2026-06-16 15:17:52.810155,48.48
2026-06-16 15:17:52.826887,16.4
2026-06-16 15:17:52.826887,13.33
2026-06-16 15:17:52.843774,21.22
2026-06-16 15:17:52.843774,-13.71
2026-06-16 15:17:52.859346,-105.18
2026-06-16 15:17:52.860021,-182.26
2026-06-16 15:17:52.874947,-205.23
2026-06-16 15:17:52.883207,-268.88
2026-06-16 15:17:52.891228,-337.18
2026-06-16 15:17:52.893061,-304.65
2026-06-16 15:17:52.905662,-127.02
2026-06-16 15:17:52.910368,32.82
2026-06-16 15:17:52.920654,49.57
2026-06-16 15:17:52.926603,-49.18
2026-06-16 15:17:52.932180,-76.8
2026-06-16 15:17:52.943111,66.87
2026-06-16 15:17:52.943111,211.8
2026-06-16 15:17:52.960336,200.79
2026-06-16 15:17:52.960336,103.28
2026-06-16 15:17:52.976976,77.88
2026-06-16 15:17:52.976976,163.06
2026-06-16 15:17:52.992746,280.65
2026-06-16 15:17:53.000219,347.91
2026-06-16 15:17:53.008249,357.11
2026-06-16 15:17:53.011039,336.42
2026-06-16 15:17:53.011039,276.03
2026-06-16 15:17:53.026569,139.33
2026-06-16 15:17:53.026569,12.27
2026-06-16 15:17:53.046802,-77.34
2026-06-16 15:17:53.046802,-172.47
2026-06-16 15:17:53.059641,-245.24
2026-06-16 15:17:53.059641,-198.24
2026-06-16 15:17:53.076654,-52.98
2026-06-16 15:17:53.076654,35.84
2026-06-16 15:17:53.093304,-15.08
2026-06-16 15:17:53.093304,-66.75
2026-06-16 15:17:53.109759,18.16
2026-06-16 15:17:53.109759,138.47
2026-06-16 15:17:53.124830,159.66
2026-06-16 15:17:53.126605,89.22
2026-06-16 15:17:53.126605,91.75
2026-06-16 15:17:53.143123,135.08
2026-06-16 15:17:53.143123,98.58
2026-06-16 15:17:53.160251,8.54
2026-06-16 15:17:53.166995,0.53
2026-06-16 15:17:53.176766,55.26
2026-06-16 15:17:53.182198,41.05
2026-06-16 15:17:53.193228,-41.74
2026-06-16 15:17:53.193228,-28.6
2026-06-16 15:17:53.210025,84.98
2026-06-16 15:17:53.218603,168.13
2026-06-16 15:17:53.226506,124.51
2026-06-16 15:17:53.226506,56.22
2026-06-16 15:17:53.242387,69.87
2026-06-16 15:17:53.243177,79.47
2026-06-16 15:17:53.258070,51.22
2026-06-16 15:17:53.259910,-4.76
2026-06-16 15:17:53.259910,-67.42
2026-06-16 15:17:53.276281,-121.81
2026-06-16 15:17:53.276281,-122.2
2026-06-16 15:17:53.292997,-46.96
2026-06-16 15:17:53.292997,-9.91
2026-06-16 15:17:53.309523,-74.53
2026-06-16 15:17:53.309523,-124.91
2026-06-16 15:17:53.326371,-66.57
2026-06-16 15:17:53.326371,7.39
2026-06-16 15:17:53.343318,-14.54
2026-06-16 15:17:53.343318,-75.16
2026-06-16 15:17:53.359210,-49.91
2026-06-16 15:17:53.365753,-26.77
2026-06-16 15:17:53.374739,-79.37
2026-06-16 15:17:53.376750,-123.75
2026-06-16 15:17:53.391322,-44.53
2026-06-16 15:17:53.393243,45.24
2026-06-16 15:17:53.406597,-6.72
2026-06-16 15:17:53.410038,-104.2
2026-06-16 15:17:53.410038,-43.98
2026-06-16 15:17:53.426744,134.35
2026-06-16 15:17:53.436705,258.05
2026-06-16 15:17:53.442976,237.85
2026-06-16 15:17:53.442976,207.81
2026-06-16 15:17:53.460272,229.66
2026-06-16 15:17:53.468923,206.62
2026-06-16 15:17:53.476541,129.96
2026-06-16 15:17:53.476541,120.36
2026-06-16 15:17:53.492531,269.01
2026-06-16 15:17:53.495287,420.89
2026-06-16 15:17:53.507972,441.67
2026-06-16 15:17:53.512101,426.53
2026-06-16 15:17:53.512101,516.93
2026-06-16 15:17:53.526437,629.77
2026-06-16 15:17:53.526437,550.0
2026-06-16 15:17:53.543163,275.62
2026-06-16 15:17:53.543163,121.01
2026-06-16 15:17:53.560510,162.2
2026-06-16 15:17:53.560510,177.31
2026-06-16 15:17:53.576465,27.17
2026-06-16 15:17:53.585610,-126.2
2026-06-16 15:17:53.593070,-101.69
2026-06-16 15:17:53.593070,-39.49
2026-06-16 15:17:53.610052,-101.98
2026-06-16 15:17:53.610052,-223.85
2026-06-16 15:17:53.625761,-249.6
2026-06-16 15:17:53.626812,-228.45
2026-06-16 15:17:53.641268,-264.12
2026-06-16 15:17:53.642904,-327.48
2026-06-16 15:17:53.642904,-285.04
2026-06-16 15:17:53.660534,-190.09
2026-06-16 15:17:53.660534,-172.22
2026-06-16 15:17:53.676841,-249.97
2026-06-16 15:17:53.676841,-289.51
2026-06-16 15:17:53.693343,-244.28
2026-06-16 15:17:53.693343,-190.33
2026-06-16 15:17:53.710322,-190.37
2026-06-16 15:17:53.717701,-240.16
2026-06-16 15:17:53.725919,-266.82
2026-06-16 15:17:53.725919,-241.61
2026-06-16 15:17:53.742378,-191.65
2026-06-16 15:17:53.743339,-191.68
2026-06-16 15:17:53.758144,-224.55
2026-06-16 15:17:53.760259,-233.38
2026-06-16 15:17:53.760259,-182.46
2026-06-16 15:17:53.776391,-139.76
2026-06-16 15:17:53.776391,-125.13
2026-06-16 15:17:53.793073,-136.45
2026-06-16 15:17:53.793073,-110.89
2026-06-16 15:17:53.809704,-86.46
2026-06-16 15:17:53.820253,-106.92
2026-06-16 15:17:53.826175,-177.03
2026-06-16 15:17:53.826175,-233.85
2026-06-16 15:17:53.842932,-203.83
2026-06-16 15:17:53.842932,-149.08
2026-06-16 15:17:53.859553,-150.33
2026-06-16 15:17:53.859553,-157.53
2026-06-16 15:17:53.875514,-117.94
2026-06-16 15:17:53.878462,-100.44
2026-06-16 15:17:53.891173,-183.51
2026-06-16 15:17:53.892696,-317.92
2026-06-16 15:17:53.905644,-320.31
2026-06-16 15:17:53.909714,-202.29
2026-06-16 15:17:53.909714,-111.73
2026-06-16 15:17:53.926069,-131.07
2026-06-16 15:17:53.926069,-138.38
2026-06-16 15:17:53.942689,-82.96
2026-06-16 15:17:53.953287,-70.6
2026-06-16 15:17:53.959576,-133.93
2026-06-16 15:17:53.959576,-150.18
2026-06-16 15:17:53.976426,-66.84
2026-06-16 15:17:53.976426,-1.83
2026-06-16 15:17:53.992855,-34.66
2026-06-16 15:17:53.996077,-100.15
2026-06-16 15:17:54.007637,-88.71
2026-06-16 15:17:54.009856,-42.49
2026-06-16 15:17:54.009856,-29.35
2026-06-16 15:17:54.026175,-64.02
2026-06-16 15:17:54.026175,-88.58
2026-06-16 15:17:54.042778,-57.29
2026-06-16 15:17:54.042778,-10.24
2026-06-16 15:17:54.059532,-19.14
2026-06-16 15:17:54.059532,-85.71
2026-06-16 15:17:54.075990,-146.97
2026-06-16 15:17:54.084502,-140.27
2026-06-16 15:17:54.092566,-104.74
2026-06-16 15:17:54.092566,-127.1
2026-06-16 15:17:54.109880,-208.06
2026-06-16 15:17:54.109880,-242.84
2026-06-16 15:17:54.125529,-148.09
2026-06-16 15:17:54.126541,-61.78
2026-06-16 15:17:54.141192,-89.34
2026-06-16 15:17:54.142693,-175.45
2026-06-16 15:17:54.142693,-163.63
2026-06-16 15:17:54.159747,-100.13
2026-06-16 15:17:54.159747,-112.56
2026-06-16 15:17:54.176541,-197.57
2026-06-16 15:17:54.176541,-220.46
2026-06-16 15:17:54.192892,-161.65
2026-06-16 15:17:54.192892,-119.05
2026-06-16 15:17:54.209600,-146.32
2026-06-16 15:17:54.209600,-156.53
2026-06-16 15:17:54.225906,-84.11
2026-06-16 15:17:54.230709,-12.05
2026-06-16 15:17:54.242133,-0.05
2026-06-16 15:17:54.243047,-15.97
2026-06-16 15:17:54.257781,15.95
2026-06-16 15:17:54.259659,36.77
2026-06-16 15:17:54.259659,16.69
2026-06-16 15:17:54.276928,-6.28
2026-06-16 15:17:54.276928,15.64
2026-06-16 15:17:54.292710,30.49
2026-06-16 15:17:54.292710,-37.33
2026-06-16 15:17:54.309687,-156.54
2026-06-16 15:17:54.319375,-180.63
2026-06-16 15:17:54.326034,-102.12
2026-06-16 15:17:54.335416,-63.8
2026-06-16 15:17:54.342804,-99.3
2026-06-16 15:17:54.342804,-93.83
2026-06-16 15:17:54.359856,15.1
2026-06-16 15:17:54.360427,88.65
2026-06-16 15:17:54.375525,58.36
2026-06-16 15:17:54.376192,-9.6
2026-06-16 15:17:54.391203,-11.54
2026-06-16 15:17:54.396449,27.33
2026-06-16 15:17:54.396449,30.17
2026-06-16 15:17:54.409801,9.13
2026-06-16 15:17:54.409801,33.96
2026-06-16 15:17:54.426428,51.7
2026-06-16 15:17:54.426428,21.59
2026-06-16 15:17:54.442947,-27.27
2026-06-16 15:17:54.453873,-33.11
2026-06-16 15:17:54.460545,-8.07
2026-06-16 15:17:54.467144,-14.99
2026-06-16 15:17:54.476538,-64.67
2026-06-16 15:17:54.476538,-91.21
2026-06-16 15:17:54.492179,-7.17
2026-06-16 15:17:54.500191,70.47
2026-06-16 15:17:54.507696,30.32
2026-06-16 15:17:54.509716,-58.39
2026-06-16 15:17:54.509716,-65.06
2026-06-16 15:17:54.526424,-14.98
2026-06-16 15:17:54.526424,4.0
2026-06-16 15:17:54.542749,-39.8
2026-06-16 15:17:54.553726,-33.63
2026-06-16 15:17:54.559504,32.2
2026-06-16 15:17:54.559504,64.88
2026-06-16 15:17:54.576093,29.73
2026-06-16 15:17:54.576093,-5.25
2026-06-16 15:17:54.592406,15.68
2026-06-16 15:17:54.592406,52.41
2026-06-16 15:17:54.609748,45.19
2026-06-16 15:17:54.609748,8.14
2026-06-16 15:17:54.625430,-8.81
2026-06-16 15:17:54.626340,-2.8
2026-06-16 15:17:54.641099,-24.67
2026-06-16 15:17:54.642877,-80.27
2026-06-16 15:17:54.642877,-117.68
2026-06-16 15:17:54.659512,-125.05
2026-06-16 15:17:54.659512,-85.62
2026-06-16 15:17:54.675671,-67.28
2026-06-16 15:17:54.675671,-69.93
2026-06-16 15:17:54.694557,-65.6
2026-06-16 15:17:54.694557,-35.42
2026-06-16 15:17:54.709721,35.4
2026-06-16 15:17:54.709721,53.13
2026-06-16 15:17:54.726196,-30.71
2026-06-16 15:17:54.734680,-126.08
2026-06-16 15:17:54.742525,-77.69
2026-06-16 15:17:54.742525,59.01
2026-06-16 15:17:54.757705,119.41
2026-06-16 15:17:54.759720,70.06
2026-06-16 15:17:54.759720,-1.93
2026-06-16 15:17:54.776176,-74.55
2026-06-16 15:17:54.776176,-160.75
2026-06-16 15:17:54.792596,-253.47
2026-06-16 15:17:54.792596,-193.5
2026-06-16 15:17:54.812512,-27.36
2026-06-16 15:17:54.814529,30.48
2026-06-16 15:17:54.826043,-61.21
2026-06-16 15:17:54.826043,-125.58
2026-06-16 15:17:54.843005,-51.32
2026-06-16 15:17:54.843005,25.55
2026-06-16 15:17:54.859677,-0.44
2026-06-16 15:17:54.860138,-65.12
2026-06-16 15:17:54.875337,-24.99
2026-06-16 15:17:54.877984,60.7
2026-06-16 15:17:54.890969,47.46
2026-06-16 15:17:54.892696,-32.37
2026-06-16 15:17:54.906373,-22.26
2026-06-16 15:17:54.909046,45.51
2026-06-16 15:17:54.909046,34.34
2026-06-16 15:17:54.925569,-53.39
2026-06-16 15:17:54.925569,-72.03
2026-06-16 15:17:54.942364,21.86
2026-06-16 15:17:54.942364,64.53
2026-06-16 15:17:54.959627,-38.27
2026-06-16 15:17:54.967899,-111.71
2026-06-16 15:17:54.976220,-35.53
2026-06-16 15:17:54.979761,60.16
2026-06-16 15:17:54.992384,53.89
2026-06-16 15:17:54.992384,-26.97
2026-06-16 15:17:55.007524,-19.87
2026-06-16 15:17:55.009597,41.92
2026-06-16 15:17:55.009597,62.6
2026-06-16 15:17:55.025929,19.51
2026-06-16 15:17:55.025929,21.4
2026-06-16 15:17:55.042957,74.03
2026-06-16 15:17:55.042957,63.71
2026-06-16 15:17:55.060200,-13.23
2026-06-16 15:17:55.060200,-41.02
2026-06-16 15:17:55.075629,-0.02
2026-06-16 15:17:55.075629,50.72
2026-06-16 15:17:55.093219,48.48
2026-06-16 15:17:55.093219,30.33
2026-06-16 15:17:55.109078,47.09
2026-06-16 15:17:55.109078,70.74
2026-06-16 15:17:55.125318,50.48
2026-06-16 15:17:55.126897,-6.49
2026-06-16 15:17:55.140848,-7.45
2026-06-16 15:17:55.142853,39.35
2026-06-16 15:17:55.142853,82.94
2026-06-16 15:17:55.159419,86.5
2026-06-16 15:17:55.159419,68.16
2026-06-16 15:17:55.176041,71.8
2026-06-16 15:17:55.176041,56.52
2026-06-16 15:17:55.192596,-0.48
2026-06-16 15:17:55.192596,-67.15
2026-06-16 15:17:55.209669,-50.89
2026-06-16 15:17:55.209669,15.04
2026-06-16 15:17:55.225926,35.85
2026-06-16 15:17:55.225926,12.79
2026-06-16 15:17:55.242504,40.59
2026-06-16 15:17:55.242504,123.96
2026-06-16 15:17:55.257538,164.14
2026-06-16 15:17:55.265181,115.56
2026-06-16 15:17:55.273207,76.18
2026-06-16 15:17:55.275775,98.68
2026-06-16 15:17:55.275775,137.99
2026-06-16 15:17:55.292856,118.39
2026-06-16 15:17:55.292856,65.06
2026-06-16 15:17:55.309910,41.85
2026-06-16 15:17:55.309910,10.8
2026-06-16 15:17:55.326138,-59.9
2026-06-16 15:17:55.326138,-121.29
2026-06-16 15:17:55.342921,-106.75
2026-06-16 15:17:55.352013,-44.53
2026-06-16 15:17:55.359610,17.38
2026-06-16 15:17:55.359610,28.24
2026-06-16 15:17:55.375200,36.06
2026-06-16 15:17:55.376207,45.83
2026-06-16 15:17:55.390835,47.59
2026-06-16 15:17:55.392520,32.43
2026-06-16 15:17:55.392520,48.19
2026-06-16 15:17:55.409311,61.87
2026-06-16 15:17:55.409311,18.78
2026-06-16 15:17:55.430258,-49.97
2026-06-16 15:17:55.436286,-30.81
2026-06-16 15:17:55.442432,44.96
2026-06-16 15:17:55.442432,50.71
2026-06-16 15:17:55.459126,-39.1
2026-06-16 15:17:55.459126,-100.59
2026-06-16 15:17:55.476319,-26.46
2026-06-16 15:17:55.479933,48.3
2026-06-16 15:17:55.492175,22.19
2026-06-16 15:17:55.498082,-32.65
2026-06-16 15:17:55.507421,33.18
2026-06-16 15:17:55.515826,129.53
2026-06-16 15:17:55.524185,119.93
2026-06-16 15:17:55.525853,33.76
2026-06-16 15:17:55.525853,5.73
2026-06-16 15:17:55.542476,35.55
2026-06-16 15:17:55.542476,9.5
2026-06-16 15:17:55.559388,-98.0
2026-06-16 15:17:55.559388,-114.43
2026-06-16 15:17:55.576099,-26.3
2026-06-16 15:17:55.576099,13.64
2026-06-16 15:17:55.592090,-50.11
2026-06-16 15:17:55.592090,-115.53
2026-06-16 15:17:55.609494,-58.24
2026-06-16 15:17:55.609494,35.58
2026-06-16 15:17:55.625073,55.3
2026-06-16 15:17:55.626118,14.23
2026-06-16 15:17:55.640783,17.15
2026-06-16 15:17:55.642420,49.9
2026-06-16 15:17:55.642420,53.63
2026-06-16 15:17:55.658932,59.33
2026-06-16 15:17:55.658932,50.08
2026-06-16 15:17:55.675874,-61.61
2026-06-16 15:17:55.675874,-250.36
2026-06-16 15:17:55.692095,-377.46
2026-06-16 15:17:55.692095,-362.64
2026-06-16 15:17:55.709549,-342.91
2026-06-16 15:17:55.709549,-499.4
2026-06-16 15:17:55.725846,-743.67
2026-06-16 15:17:55.734176,-868.3
2026-06-16 15:17:55.741874,-879.88
2026-06-16 15:17:55.747252,-942.15
2026-06-16 15:17:55.757603,-1113.55
2026-06-16 15:17:55.760017,-1256.24
2026-06-16 15:17:55.774001,-1325.58
2026-06-16 15:17:55.776018,-1439.34
2026-06-16 15:17:55.776018,-1649.06
2026-06-16 15:17:55.792399,-1847.77
2026-06-16 15:17:55.792399,-1895.25
2026-06-16 15:17:55.809545,-1888.76
2026-06-16 15:17:55.819961,-1914.14
2026-06-16 15:17:55.826014,-1972.23
2026-06-16 15:17:55.826014,-1966.35
2026-06-16 15:17:55.842654,-1825.18
2026-06-16 15:17:55.842654,-1667.79
2026-06-16 15:17:55.859204,-1510.21
2026-06-16 15:17:55.859204,-1364.35
2026-06-16 15:17:55.875046,-1211.26
2026-06-16 15:17:55.876047,-1051.98
2026-06-16 15:17:55.890658,-886.52
2026-06-16 15:17:55.892163,-683.09
2026-06-16 15:17:55.892163,-507.54
2026-06-16 15:17:55.913722,-385.6
2026-06-16 15:17:55.920857,-333.92
2026-06-16 15:17:55.925694,-316.33
2026-06-16 15:17:55.925694,-314.75
2026-06-16 15:17:55.942267,-387.8
2026-06-16 15:17:55.942267,-515.21
2026-06-16 15:17:55.959237,-688.75
2026-06-16 15:17:55.959237,-779.83
2026-06-16 15:17:55.975503,-727.18
2026-06-16 15:17:55.975503,-646.93
2026-06-16 15:17:55.992189,-586.98
2026-06-16 15:17:55.998608,-593.0
2026-06-16 15:17:56.007306,-563.17
2026-06-16 15:17:56.009966,-463.84
2026-06-16 15:17:56.023849,-250.58
2026-06-16 15:17:56.030646,84.99
2026-06-16 15:17:56.038977,446.75
2026-06-16 15:17:56.042299,706.2
2026-06-16 15:17:56.042299,773.31
2026-06-16 15:17:56.058937,776.41
2026-06-16 15:17:56.058937,850.14
2026-06-16 15:17:56.075965,904.59
2026-06-16 15:17:56.075965,884.15
2026-06-16 15:17:56.092168,822.02
2026-06-16 15:17:56.092168,808.96
2026-06-16 15:17:56.109118,852.67
2026-06-16 15:17:56.111748,852.39
2026-06-16 15:17:56.125043,792.41
2026-06-16 15:17:56.125602,731.73
2026-06-16 15:17:56.140717,766.87
2026-06-16 15:17:56.143315,864.53
2026-06-16 15:17:56.143315,939.81
2026-06-16 15:17:56.159388,971.92
2026-06-16 15:17:56.159388,1026.76
2026-06-16 15:17:56.175661,1085.31
2026-06-16 15:17:56.175661,1058.99
2026-06-16 15:17:56.192640,958.17
2026-06-16 15:17:56.192640,884.73
2026-06-16 15:17:56.210486,889.26
2026-06-16 15:17:56.215220,869.89
2026-06-16 15:17:56.225635,810.81
2026-06-16 15:17:56.225635,796.81
2026-06-16 15:17:56.242419,905.26
2026-06-16 15:17:56.242419,1028.09
2026-06-16 15:17:56.258388,1074.69
2026-06-16 15:17:56.260186,1038.48
2026-06-16 15:17:56.274219,1005.42
2026-06-16 15:17:56.276097,1009.35
2026-06-16 15:17:56.276097,1028.18
2026-06-16 15:17:56.292352,1047.92
2026-06-16 15:17:56.292352,1128.25
2026-06-16 15:17:56.310917,1227.08
2026-06-16 15:17:56.310917,1299.55
2026-06-16 15:17:56.325584,1302.01
2026-06-16 15:17:56.325584,1303.46
2026-06-16 15:17:56.344141,1386.49
2026-06-16 15:17:56.350197,1467.12
2026-06-16 15:17:56.359705,1486.65
2026-06-16 15:17:56.359705,1398.62
2026-06-16 15:17:56.374971,1290.14
2026-06-16 15:17:56.375768,1224.98
2026-06-16 15:17:56.390600,1208.91
2026-06-16 15:17:56.392619,1222.76
2026-06-16 15:17:56.392619,1182.82
2026-06-16 15:17:56.410833,1050.54
2026-06-16 15:17:56.410833,930.86
2026-06-16 15:17:56.425839,848.6
2026-06-16 15:17:56.425839,778.68
2026-06-16 15:17:56.442552,693.2
2026-06-16 15:17:56.442552,621.08
2026-06-16 15:17:56.458726,588.12
2026-06-16 15:17:56.458726,557.32
2026-06-16 15:17:56.475666,504.79
2026-06-16 15:17:56.475666,355.0
2026-06-16 15:17:56.492588,164.18
2026-06-16 15:17:56.492588,22.07
2026-06-16 15:17:56.508143,-39.73
2026-06-16 15:17:56.512789,-3.71
2026-06-16 15:17:56.523808,63.96
2026-06-16 15:17:56.525348,51.7
2026-06-16 15:17:56.525348,-21.19
2026-06-16 15:17:56.542306,-79.79
2026-06-16 15:17:56.542306,-44.56
2026-06-16 15:17:56.558979,64.11
2026-06-16 15:17:56.558979,135.43
2026-06-16 15:17:56.575560,119.83
2026-06-16 15:17:56.575560,116.25
2026-06-16 15:17:56.592261,208.2
2026-06-16 15:17:56.592261,280.79
2026-06-16 15:17:56.608709,263.47
2026-06-16 15:17:56.611285,234.29
2026-06-16 15:17:56.624993,320.68
2026-06-16 15:17:56.626359,472.3
2026-06-16 15:17:56.640448,556.51
2026-06-16 15:17:56.642322,542.78
2026-06-16 15:17:56.642322,524.15
2026-06-16 15:17:56.658945,513.56
2026-06-16 15:17:56.658945,474.18
2026-06-16 15:17:56.675695,407.14
2026-06-16 15:17:56.675695,382.22
2026-06-16 15:17:56.692447,376.32
2026-06-16 15:17:56.692447,292.85
2026-06-16 15:17:56.708902,185.92
2026-06-16 15:17:56.711409,139.22
2026-06-16 15:17:56.725232,166.38
2026-06-16 15:17:56.725232,153.61
2026-06-16 15:17:56.742049,67.27
2026-06-16 15:17:56.742049,-15.65
2026-06-16 15:17:56.758142,-5.62
2026-06-16 15:17:56.759472,58.09
2026-06-16 15:17:56.773794,62.77
2026-06-16 15:17:56.775199,15.69
2026-06-16 15:17:56.775199,6.66
2026-06-16 15:17:56.792365,34.49
2026-06-16 15:17:56.792365,19.39
2026-06-16 15:17:56.811626,-60.31
2026-06-16 15:17:56.811626,-112.74
2026-06-16 15:17:56.825306,-108.2
2026-06-16 15:17:56.825306,-103.68
2026-06-16 15:17:56.843959,-145.94
2026-06-16 15:17:56.843959,-208.89
2026-06-16 15:17:56.859105,-194.91
2026-06-16 15:17:56.859105,-157.12
2026-06-16 15:17:56.874784,-133.45
2026-06-16 15:17:56.875555,-122.84
2026-06-16 15:17:56.890305,-98.34
2026-06-16 15:17:56.892159,-74.97
2026-06-16 15:17:56.892159,-32.8
2026-06-16 15:17:56.914191,7.16
2026-06-16 15:17:56.914191,4.14
2026-06-16 15:17:56.925163,-40.65
2026-06-16 15:17:56.925163,-51.4
2026-06-16 15:17:56.942408,-17.31
2026-06-16 15:17:56.942408,-7.27
2026-06-16 15:17:56.958352,-75.89
2026-06-16 15:17:56.958352,-148.15
2026-06-16 15:17:56.975513,-115.56
2026-06-16 15:17:56.975513,-58.27
2026-06-16 15:17:56.991838,-113.7
2026-06-16 15:17:56.991838,-223.58
2026-06-16 15:17:57.007996,-226.44
2026-06-16 15:17:57.013599,-126.8
2026-06-16 15:17:57.023707,-77.41
2026-06-16 15:17:57.031081,-179.51
2026-06-16 15:17:57.031766,-300.0
2026-06-16 15:17:57.041838,-334.32
2026-06-16 15:17:57.041838,-314.74
2026-06-16 15:17:57.058944,-316.15
2026-06-16 15:17:57.058944,-310.59
2026-06-16 15:17:57.075324,-246.35
2026-06-16 15:17:57.075324,-188.41
2026-06-16 15:17:57.091972,-173.54
2026-06-16 15:17:57.091972,-176.65
2026-06-16 15:17:57.108683,-136.96
2026-06-16 15:17:57.111849,-84.53
2026-06-16 15:17:57.125589,-58.24
2026-06-16 15:17:57.125589,-74.87
2026-06-16 15:17:57.140199,-112.3
2026-06-16 15:17:57.142579,-112.74
2026-06-16 15:17:57.142579,-91.28
2026-06-16 15:17:57.159093,-137.59
2026-06-16 15:17:57.159093,-241.37
2026-06-16 15:17:57.174925,-299.87
2026-06-16 15:17:57.174925,-264.54
2026-06-16 15:17:57.193267,-211.47
2026-06-16 15:17:57.193267,-197.48
2026-06-16 15:17:57.208927,-174.6
2026-06-16 15:17:57.211850,-165.77
2026-06-16 15:17:57.225279,-167.93
2026-06-16 15:17:57.225279,-163.11
2026-06-16 15:17:57.242381,-81.7
2026-06-16 15:17:57.242381,13.24
2026-06-16 15:17:57.257962,-6.73
2026-06-16 15:17:57.258708,-112.17
2026-06-16 15:17:57.273600,-153.39
2026-06-16 15:17:57.275117,-129.74
2026-06-16 15:17:57.275117,-181.83
2026-06-16 15:17:57.292153,-325.19
2026-06-16 15:17:57.292153,-374.31
2026-06-16 15:17:57.311801,-276.92
2026-06-16 15:17:57.311801,-154.15
2026-06-16 15:17:57.325174,-107.61
2026-06-16 15:17:57.325174,-109.06
2026-06-16 15:17:57.341728,-53.79
2026-06-16 15:17:57.341728,-29.64
2026-06-16 15:17:57.358873,-68.3
2026-06-16 15:17:57.358873,-108.75
2026-06-16 15:17:57.374582,-31.59
2026-06-16 15:17:57.375588,78.02
2026-06-16 15:17:57.390272,49.77
2026-06-16 15:17:57.392081,-92.77
2026-06-16 15:17:57.392081,-153.99
2026-06-16 15:17:57.412084,-83.57
2026-06-16 15:17:57.412084,-13.51
2026-06-16 15:17:57.425543,-84.08
2026-06-16 15:17:57.425543,-176.2
2026-06-16 15:17:57.442267,-172.33
2026-06-16 15:17:57.451651,-150.58
2026-06-16 15:17:57.458711,-181.66
2026-06-16 15:17:57.458711,-200.65
2026-06-16 15:17:57.475576,-106.12
2026-06-16 15:17:57.475576,-29.97
2026-06-16 15:17:57.492184,-49.72
2026-06-16 15:17:57.492184,-93.25
2026-06-16 15:17:57.507885,-57.96
2026-06-16 15:17:57.512032,-10.91
2026-06-16 15:17:57.523627,-59.61
2026-06-16 15:17:57.531531,-149.85
2026-06-16 15:17:57.539021,-113.28
2026-06-16 15:17:57.546808,-28.14
2026-06-16 15:17:57.547460,-98.65
2026-06-16 15:17:57.558527,-307.1
2026-06-16 15:17:57.558527,-433.92
2026-06-16 15:17:57.575350,-412.85
2026-06-16 15:17:57.575350,-363.02
2026-06-16 15:17:57.591958,-361.21
2026-06-16 15:17:57.591958,-363.38
2026-06-16 15:17:57.608916,-282.96
2026-06-16 15:17:57.612225,-200.95
2026-06-16 15:17:57.625592,-180.05
2026-06-16 15:17:57.625592,-179.15
2026-06-16 15:17:57.640334,-109.6
2026-06-16 15:17:57.648297,-46.36
2026-06-16 15:17:57.656783,-60.06
2026-06-16 15:17:57.662666,-137.37
2026-06-16 15:17:57.670702,-216.28
2026-06-16 15:17:57.675208,-242.07
2026-06-16 15:17:57.675208,-215.98
2026-06-16 15:17:57.691844,-177.09
2026-06-16 15:17:57.691844,-168.25
2026-06-16 15:17:57.709662,-166.41
2026-06-16 15:17:57.712335,-124.78
2026-06-16 15:17:57.725366,6.19
2026-06-16 15:17:57.725366,126.55
2026-06-16 15:17:57.742733,146.81
2026-06-16 15:17:57.742733,93.34
2026-06-16 15:17:57.757944,102.83
2026-06-16 15:17:57.759546,161.02
2026-06-16 15:17:57.773566,192.05
2026-06-16 15:17:57.775604,137.36
2026-06-16 15:17:57.775604,105.83
2026-06-16 15:17:57.792136,128.19
2026-06-16 15:17:57.792136,108.64
2026-06-16 15:17:57.812243,3.62
2026-06-16 15:17:57.812243,-45.15
2026-06-16 15:17:57.824745,24.72
2026-06-16 15:17:57.824745,101.22
2026-06-16 15:17:57.841726,78.82
2026-06-16 15:17:57.841726,14.75
2026-06-16 15:17:57.858656,37.56
2026-06-16 15:17:57.858656,119.95
2026-06-16 15:17:57.874584,137.26
2026-06-16 15:17:57.875566,69.91
2026-06-16 15:17:57.890134,55.63
2026-06-16 15:17:57.891969,93.17
2026-06-16 15:17:57.906606,102.65
2026-06-16 15:17:57.914224,85.22
2026-06-16 15:17:57.922252,90.77
2026-06-16 15:17:57.924837,120.16
2026-06-16 15:17:57.924837,91.7
2026-06-16 15:17:57.941774,-6.27
2026-06-16 15:17:57.941774,-72.9
2026-06-16 15:17:57.958517,-37.71
2026-06-16 15:17:57.958517,3.27
2026-06-16 15:17:57.975185,-12.66
2026-06-16 15:17:57.975185,-15.59
2026-06-16 15:17:57.991347,75.04
2026-06-16 15:17:57.991347,147.3
2026-06-16 15:17:58.007850,108.75
2026-06-16 15:17:58.012377,28.61
2026-06-16 15:17:58.023516,42.39
2026-06-16 15:17:58.025536,130.74
2026-06-16 15:17:58.025536,127.1
2026-06-16 15:17:58.047194,-6.87
2026-06-16 15:17:58.047994,-97.38
2026-06-16 15:17:58.062800,-61.07
2026-06-16 15:17:58.062800,-9.03
2026-06-16 15:17:58.075050,-1.02
2026-06-16 15:17:58.075050,-36.84
2026-06-16 15:17:58.091552,-58.54
2026-06-16 15:17:58.091552,-72.18
2026-06-16 15:17:58.108493,-74.8
2026-06-16 15:17:58.112748,-75.42
2026-06-16 15:17:58.124886,-35.25
2026-06-16 15:17:58.124886,0.75
2026-06-16 15:17:58.141005,-28.11
2026-06-16 15:17:58.142342,-122.49
2026-06-16 15:17:58.156623,-205.46
2026-06-16 15:17:58.158254,-216.37
2026-06-16 15:17:58.158254,-152.61
2026-06-16 15:17:58.174719,-69.26
2026-06-16 15:17:58.174719,-48.02
2026-06-16 15:17:58.192007,-56.73
2026-06-16 15:17:58.192007,-53.46
2026-06-16 15:17:58.208728,-25.34
2026-06-16 15:17:58.212993,-37.15
2026-06-16 15:17:58.225384,-96.66
2026-06-16 15:17:58.225384,-154.89
2026-06-16 15:17:58.241984,-152.12
2026-06-16 15:17:58.241984,-160.32
2026-06-16 15:17:58.257749,-165.48
2026-06-16 15:17:58.258508,-166.65
2026-06-16 15:17:58.273255,-119.05
2026-06-16 15:17:58.275094,-44.82
2026-06-16 15:17:58.275094,-0.82
2026-06-16 15:17:58.291750,31.02
2026-06-16 15:17:58.291750,67.68
2026-06-16 15:17:58.311513,64.36
2026-06-16 15:17:58.313046,-7.6
2026-06-16 15:17:58.324812,-111.04
2026-06-16 15:17:58.324812,-155.26
2026-06-16 15:17:58.341495,-135.58
2026-06-16 15:17:58.341495,-140.87
2026-06-16 15:17:58.358646,-157.08
2026-06-16 15:17:58.358646,-158.29
2026-06-16 15:17:58.375236,-95.81
2026-06-16 15:17:58.375236,-57.52
2026-06-16 15:17:58.390993,-42.31
2026-06-16 15:17:58.391813,2.68
2026-06-16 15:17:58.406548,43.46
2026-06-16 15:17:58.413350,29.31
2026-06-16 15:17:58.413350,-46.45
2026-06-16 15:17:58.425551,-86.02
2026-06-16 15:17:58.425551,-29.87
2026-06-16 15:17:58.441981,27.99
2026-06-16 15:17:58.441981,-13.94
2026-06-16 15:17:58.458875,-78.55
2026-06-16 15:17:58.458875,-81.14
2026-06-16 15:17:58.474740,-59.84
2026-06-16 15:17:58.474740,-92.37
2026-06-16 15:17:58.491401,-125.74
2026-06-16 15:17:58.491401,-119.14
2026-06-16 15:17:58.507607,-74.77
2026-06-16 15:17:58.515487,-77.38
2026-06-16 15:17:58.523355,-106.84
2026-06-16 15:17:58.525372,-101.33
2026-06-16 15:17:58.525372,-31.17
2026-06-16 15:17:58.541695,30.67
2026-06-16 15:17:58.541695,58.38
2026-06-16 15:17:58.558667,96.89
2026-06-16 15:17:58.568609,119.29
2026-06-16 15:17:58.575912,99.79
2026-06-16 15:17:58.575912,53.52
2026-06-16 15:17:58.591636,52.26
2026-06-16 15:17:58.591636,99.76
2026-06-16 15:17:58.608637,86.32
2026-06-16 15:17:58.613541,-21.57
2026-06-16 15:17:58.625255,-101.06
2026-06-16 15:17:58.625255,-75.68
2026-06-16 15:17:58.640979,-18.59
2026-06-16 15:17:58.641610,-66.25
2026-06-16 15:17:58.656639,-120.65
2026-06-16 15:17:58.659496,-94.17
2026-06-16 15:17:58.659496,-16.09
2026-06-16 15:17:58.675152,-1.09
2026-06-16 15:17:58.675152,-26.95
2026-06-16 15:17:58.691488,36.86
2026-06-16 15:17:58.691488,83.44
2026-06-16 15:17:58.708288,3.43
2026-06-16 15:17:58.713534,-98.08
2026-06-16 15:17:58.725293,-19.98
2026-06-16 15:17:58.725293,123.4
2026-06-16 15:17:58.742011,89.95
2026-06-16 15:17:58.742011,-87.61
2026-06-16 15:17:58.757711,-143.89
2026-06-16 15:17:58.759171,-31.73
2026-06-16 15:17:58.773449,43.05
2026-06-16 15:17:58.776197,-58.65
2026-06-16 15:17:58.776197,-149.9
2026-06-16 15:17:58.791144,-110.34
2026-06-16 15:17:58.791144,-46.11
2026-06-16 15:17:58.808255,-73.74
2026-06-16 15:17:58.813729,-112.18
2026-06-16 15:17:58.824990,-46.94
2026-06-16 15:17:58.824990,21.95
2026-06-16 15:17:58.841598,-2.04
2026-06-16 15:17:58.841598,-77.65
2026-06-16 15:17:58.858281,-56.37
2026-06-16 15:17:58.858281,25.5
2026-06-16 15:17:58.874849,46.27
2026-06-16 15:17:58.874849,35.09
2026-06-16 15:17:58.890894,94.62
2026-06-16 15:17:58.891793,126.98
2026-06-16 15:17:58.906499,-1.01
2026-06-16 15:17:58.913993,-174.14
2026-06-16 15:17:58.913993,-179.24
2026-06-16 15:17:58.924677,-22.13
2026-06-16 15:17:58.936357,78.48
2026-06-16 15:17:58.941226,8.44
2026-06-16 15:17:58.941226,-82.15
2026-06-16 15:17:58.958401,-43.93
2026-06-16 15:17:58.958401,43.85
2026-06-16 15:17:58.976622,56.56
2026-06-16 15:17:58.980641,-13.37
2026-06-16 15:17:58.991692,-69.02
2026-06-16 15:17:58.991692,-64.7
2026-06-16 15:17:59.007970,2.29
2026-06-16 15:17:59.014084,35.12
2026-06-16 15:17:59.023064,6.09
2026-06-16 15:17:59.024643,-51.65
2026-06-16 15:17:59.024643,-34.48
2026-06-16 15:17:59.041750,69.17
2026-06-16 15:17:59.041750,130.51
2026-06-16 15:17:59.058561,109.96
2026-06-16 15:17:59.058561,60.66
2026-06-16 15:17:59.076578,85.23
2026-06-16 15:17:59.083833,143.51
2026-06-16 15:17:59.093804,138.81
2026-06-16 15:17:59.093804,119.21
2026-06-16 15:17:59.108567,144.49
2026-06-16 15:17:59.114374,152.72
2026-06-16 15:17:59.124862,112.15
2026-06-16 15:17:59.124862,51.89
2026-06-16 15:17:59.140871,72.53
2026-06-16 15:17:59.141852,89.08
2026-06-16 15:17:59.156388,25.95
2026-06-16 15:17:59.158955,-62.73
2026-06-16 15:17:59.158955,-48.49
2026-06-16 15:17:59.175091,52.25
2026-06-16 15:17:59.175091,51.99
2026-06-16 15:17:59.191829,-52.75
2026-06-16 15:17:59.191829,-122.13
2026-06-16 15:17:59.209102,-66.8
2026-06-16 15:17:59.214302,15.12
2026-06-16 15:17:59.224425,33.95
2026-06-16 15:17:59.224425,25.82
2026-06-16 15:17:59.241538,88.38
2026-06-16 15:17:59.241538,133.71
2026-06-16 15:17:59.257563,81.3
2026-06-16 15:17:59.265091,-36.52
2026-06-16 15:17:59.273062,-61.21
2026-06-16 15:17:59.275070,4.77
2026-06-16 15:17:59.275070,24.64
2026-06-16 15:17:59.291400,-36.18
2026-06-16 15:17:59.304145,-56.89
2026-06-16 15:17:59.307988,4.09
2026-06-16 15:17:59.319943,51.83
2026-06-16 15:17:59.324576,5.8
2026-06-16 15:17:59.324576,-72.83
2026-06-16 15:17:59.341418,-70.48
2026-06-16 15:17:59.341418,-20.38
2026-06-16 15:17:59.358161,-6.35
2026-06-16 15:17:59.358161,-26.21
2026-06-16 15:17:59.374361,-4.19
2026-06-16 15:17:59.374361,53.54
2026-06-16 15:17:59.390757,94.07
2026-06-16 15:17:59.391667,95.59
2026-06-16 15:17:59.406239,74.21
2026-06-16 15:17:59.408123,53.94
2026-06-16 15:17:59.414483,19.84
2026-06-16 15:17:59.424912,-44.93
2026-06-16 15:17:59.424912,-102.42
2026-06-16 15:17:59.441407,-110.86
2026-06-16 15:17:59.441407,-95.38
2026-06-16 15:17:59.458360,-106.84
2026-06-16 15:17:59.458360,-154.07
2026-06-16 15:17:59.474926,-134.39
2026-06-16 15:17:59.474926,-70.04
2026-06-16 15:17:59.492092,-23.92
2026-06-16 15:17:59.492092,-37.73
2026-06-16 15:17:59.507473,-36.55
2026-06-16 15:17:59.514733,8.41
2026-06-16 15:17:59.523036,29.26
2026-06-16 15:17:59.524718,-7.7
2026-06-16 15:17:59.524718,-5.67
2026-06-16 15:17:59.541281,64.01
2026-06-16 15:17:59.541281,113.44
2026-06-16 15:17:59.558048,68.09
2026-06-16 15:17:59.558048,3.08
2026-06-16 15:17:59.574971,5.05
2026-06-16 15:17:59.574971,36.87
2026-06-16 15:17:59.593882,-1.13
2026-06-16 15:17:59.598955,-102.61
2026-06-16 15:17:59.608062,-112.05
2026-06-16 15:17:59.614678,-56.76
2026-06-16 15:17:59.624641,-46.53
2026-06-16 15:17:59.624641,-105.0
2026-06-16 15:17:59.640658,-130.35
2026-06-16 15:17:59.641208,-72.98
2026-06-16 15:17:59.656173,-5.95
2026-06-16 15:17:59.657756,42.84
2026-06-16 15:17:59.657756,98.34
2026-06-16 15:17:59.674622,161.53
2026-06-16 15:17:59.674622,144.8
2026-06-16 15:17:59.691031,62.49
2026-06-16 15:17:59.691031,25.36
2026-06-16 15:17:59.707773,66.03
2026-06-16 15:17:59.714699,84.6
2026-06-16 15:17:59.724500,27.47
2026-06-16 15:17:59.724500,-77.15
2026-06-16 15:17:59.741361,-91.69
2026-06-16 15:17:59.741361,-23.57
2026-06-16 15:17:59.757336,-2.55
2026-06-16 15:17:59.758637,-127.91
2026-06-16 15:17:59.773000,-257.62
2026-06-16 15:17:59.775016,-227.47
2026-06-16 15:17:59.775016,-59.18
2026-06-16 15:17:59.791115,61.51
2026-06-16 15:17:59.791115,46.28
2026-06-16 15:17:59.807987,12.22
2026-06-16 15:17:59.814712,37.03
2026-06-16 15:17:59.824726,62.72
2026-06-16 15:17:59.824726,9.67
2026-06-16 15:17:59.841704,-23.21
2026-06-16 15:17:59.841704,2.77
2026-06-16 15:17:59.858372,40.57
2026-06-16 15:17:59.858372,10.52
2026-06-16 15:17:59.874357,-56.2
2026-06-16 15:17:59.874357,-78.81
2026-06-16 15:17:59.890761,-32.64
2026-06-16 15:17:59.891713,-25.51
2026-06-16 15:17:59.906171,-74.14
2026-06-16 15:17:59.908087,-132.47
2026-06-16 15:17:59.914758,-105.94
2026-06-16 15:17:59.924206,-37.75
2026-06-16 15:17:59.936676,-23.63
2026-06-16 15:17:59.940980,-52.37
2026-06-16 15:17:59.940980,-53.1
2026-06-16 15:17:59.957575,17.81
2026-06-16 15:17:59.957575,65.48
2026-06-16 15:17:59.974159,68.14
2026-06-16 15:17:59.974159,62.82
2026-06-16 15:17:59.991274,92.36
2026-06-16 15:17:59.991274,114.78
2026-06-16 15:18:00.007648,81.37
2026-06-16 15:18:00.015033,8.33
2026-06-16 15:18:00.022756,-8.63
2026-06-16 15:18:00.024654,25.24
2026-06-16 15:18:00.039320,55.96
2026-06-16 15:18:00.040910,48.72
2026-06-16 15:18:00.040910,33.55
2026-06-16 15:18:00.057909,20.45
2026-06-16 15:18:00.057909,-15.47
2026-06-16 15:18:00.074405,-34.3
2026-06-16 15:18:00.074405,-41.1
2026-06-16 15:18:00.090943,-37.91
2026-06-16 15:18:00.090943,-80.5
2026-06-16 15:18:00.108982,-114.92
2026-06-16 15:18:00.115199,-79.52
2026-06-16 15:18:00.124388,-26.39
2026-06-16 15:18:00.124388,-50.14
2026-06-16 15:18:00.140470,-100.63
2026-06-16 15:18:00.141158,-117.05
2026-06-16 15:18:00.155993,-96.56
2026-06-16 15:18:00.157685,-97.07
2026-06-16 15:18:00.157685,-66.74
2026-06-16 15:18:00.175212,26.13
2026-06-16 15:18:00.175212,67.79
2026-06-16 15:18:00.191389,15.71
2026-06-16 15:18:00.191389,-30.14
2026-06-16 15:18:00.208156,95.38
2026-06-16 15:18:00.215446,222.27
2026-06-16 15:18:00.224583,134.59
2026-06-16 15:18:00.224583,-62.1
2026-06-16 15:18:00.241374,-100.59
2026-06-16 15:18:00.241374,38.22
2026-06-16 15:18:00.257667,107.68
2026-06-16 15:18:00.257667,-48.08
2026-06-16 15:18:00.273832,-188.14
2026-06-16 15:18:00.274789,-161.33
2026-06-16 15:18:00.289340,-74.95
2026-06-16 15:18:00.290933,-78.56
2026-06-16 15:18:00.290933,-120.95
2026-06-16 15:18:00.308044,-75.57
2026-06-16 15:18:00.316240,-8.53
2026-06-16 15:18:00.324625,-18.43
2026-06-16 15:18:00.324625,-76.05
2026-06-16 15:18:00.341194,-45.82
2026-06-16 15:18:00.341194,41.97
2026-06-16 15:18:00.357773,47.73
2026-06-16 15:18:00.357773,-23.15
2026-06-16 15:18:00.374157,-6.12
2026-06-16 15:18:00.374157,91.42
2026-06-16 15:18:00.390423,114.84
2026-06-16 15:18:00.391153,-8.12
2026-06-16 15:18:00.406071,-109.57
2026-06-16 15:18:00.408098,-51.31
2026-06-16 15:18:00.415373,29.54
2026-06-16 15:18:00.424211,-36.28
2026-06-16 15:18:00.424211,-202.26
2026-06-16 15:18:00.441305,-262.94
2026-06-16 15:18:00.441305,-206.9
2026-06-16 15:18:00.457777,-177.01
2026-06-16 15:18:00.457777,-201.0
2026-06-16 15:18:00.474427,-170.15
2026-06-16 15:18:00.474427,-89.69
2026-06-16 15:18:00.490992,-50.44
2026-06-16 15:18:00.490992,-94.96
2026-06-16 15:18:00.507321,-69.61
2026-06-16 15:18:00.515634,52.12
2026-06-16 15:18:00.523725,118.53
2026-06-16 15:18:00.524970,53.26
2026-06-16 15:18:00.539257,-5.71
2026-06-16 15:18:00.540905,60.98
2026-06-16 15:18:00.540905,105.45
2026-06-16 15:18:00.557740,44.23
2026-06-16 15:18:00.557740,-47.53
2026-06-16 15:18:00.574406,-49.28
2026-06-16 15:18:00.574406,-17.2
2026-06-16 15:18:00.591026,-81.79
2026-06-16 15:18:00.591026,-180.88
2026-06-16 15:18:00.607985,-146.14
2026-06-16 15:18:00.615796,-41.93
2026-06-16 15:18:00.624524,1.06
2026-06-16 15:18:00.629530,-51.68
2026-06-16 15:18:00.640361,-48.43
2026-06-16 15:18:00.641243,-0.43
2026-06-16 15:18:00.656034,5.54
2026-06-16 15:18:00.658104,-33.29
2026-06-16 15:18:00.658104,-57.01
2026-06-16 15:18:00.674238,-10.95
2026-06-16 15:18:00.674238,-3.93
2026-06-16 15:18:00.691050,-80.53
2026-06-16 15:18:00.691050,-108.98
2026-06-16 15:18:00.707570,-52.71
2026-06-16 15:18:00.715840,-63.39
2026-06-16 15:18:00.725004,-195.41
2026-06-16 15:18:00.725004,-311.85
2026-06-16 15:18:00.741329,-249.59
2026-06-16 15:18:00.741329,-118.0
2026-06-16 15:18:00.757927,-40.79
2026-06-16 15:18:00.757927,-70.44
2026-06-16 15:18:00.773579,-122.82
2026-06-16 15:18:00.778261,-148.08
2026-06-16 15:18:00.789318,-175.2
2026-06-16 15:18:00.790843,-160.39
2026-06-16 15:18:00.790843,-131.73
2026-06-16 15:18:00.807856,-146.0
2026-06-16 15:18:00.815874,-212.93
2026-06-16 15:18:00.824435,-244.7
2026-06-16 15:18:00.824435,-212.63
2026-06-16 15:18:00.840983,-166.79
2026-06-16 15:18:00.840983,-176.9
2026-06-16 15:18:00.857952,-215.82
2026-06-16 15:18:00.857952,-236.63
2026-06-16 15:18:00.874610,-199.62
2026-06-16 15:18:00.877519,-199.62
2026-06-16 15:18:00.890774,-221.51
2026-06-16 15:18:00.890774,-222.39
2026-06-16 15:18:00.905798,-197.4
2026-06-16 15:18:00.907442,-195.42
2026-06-16 15:18:00.921933,-218.32
2026-06-16 15:18:00.924660,-177.43
2026-06-16 15:18:00.936183,-65.1
2026-06-16 15:18:00.940575,30.74
2026-06-16 15:18:00.940575,36.56
2026-06-16 15:18:00.957316,61.25
2026-06-16 15:18:00.957316,172.39
2026-06-16 15:18:00.974022,260.08
2026-06-16 15:18:00.974022,204.05
2026-06-16 15:18:00.990828,81.64
2026-06-16 15:18:00.990828,18.55
2026-06-16 15:18:01.008006,34.38
2026-06-16 15:18:01.008006,32.22
2026-06-16 15:18:01.023593,-44.56
2026-06-16 15:18:01.024425,-92.1
2026-06-16 15:18:01.039126,-39.9
2026-06-16 15:18:01.040786,33.93
2026-06-16 15:18:01.040786,13.86
2026-06-16 15:18:01.057770,-54.86
2026-06-16 15:18:01.057770,-51.6
2026-06-16 15:18:01.073977,22.29
2026-06-16 15:18:01.073977,72.92
2026-06-16 15:18:01.093195,128.28
2026-06-16 15:18:01.101228,188.33
2026-06-16 15:18:01.107355,241.12
2026-06-16 15:18:01.116132,197.13
2026-06-16 15:18:01.124452,121.52
2026-06-16 15:18:01.131143,120.91
2026-06-16 15:18:01.140632,195.92
2026-06-16 15:18:01.143105,229.77
2026-06-16 15:18:01.155834,159.97
2026-06-16 15:18:01.157814,117.38
2026-06-16 15:18:01.157814,141.66
2026-06-16 15:18:01.173933,126.03
2026-06-16 15:18:01.173933,98.54
2026-06-16 15:18:01.192030,138.84
2026-06-16 15:18:01.192030,199.83
2026-06-16 15:18:01.207339,222.71
2026-06-16 15:18:01.216426,200.71
2026-06-16 15:18:01.223974,242.49
2026-06-16 15:18:01.223974,302.96
2026-06-16 15:18:01.241217,305.43
2026-06-16 15:18:01.241217,253.16
2026-06-16 15:18:01.257920,235.97
2026-06-16 15:18:01.257920,296.48
2026-06-16 15:18:01.273559,309.92
2026-06-16 15:18:01.274573,246.68
2026-06-16 15:18:01.289130,196.7
2026-06-16 15:18:01.290884,158.9
2026-06-16 15:18:01.290884,126.26
2026-06-16 15:18:01.307902,77.87
2026-06-16 15:18:01.316419,34.7
2026-06-16 15:18:01.325337,56.41
2026-06-16 15:18:01.325337,90.96
2026-06-16 15:18:01.340742,132.29
2026-06-16 15:18:01.340742,137.6
2026-06-16 15:18:01.358584,152.83
2026-06-16 15:18:01.358584,202.81
2026-06-16 15:18:01.374036,255.53
2026-06-16 15:18:01.374036,271.17
2026-06-16 15:18:01.390051,229.02
2026-06-16 15:18:01.390949,184.09
2026-06-16 15:18:01.405712,190.14
2026-06-16 15:18:01.407422,202.12
2026-06-16 15:18:01.422334,196.13
2026-06-16 15:18:01.424238,161.32
2026-06-16 15:18:01.424238,151.56
2026-06-16 15:18:01.441011,202.54
2026-06-16 15:18:01.441011,202.53
2026-06-16 15:18:01.457717,122.91
2026-06-16 15:18:01.457717,8.86
2026-06-16 15:18:01.474159,9.82
2026-06-16 15:18:01.474159,86.38
2026-06-16 15:18:01.491030,98.88
2026-06-16 15:18:01.491030,47.64
2026-06-16 15:18:01.507301,39.45
2026-06-16 15:18:01.507301,69.1
2026-06-16 15:18:01.523386,39.9
2026-06-16 15:18:01.523852,-42.89
2026-06-16 15:18:01.539206,-51.63
2026-06-16 15:18:01.541099,-16.54
2026-06-16 15:18:01.541099,-8.5
2026-06-16 15:18:01.557492,-25.37
2026-06-16 15:18:01.557492,-46.14
2026-06-16 15:18:01.574331,-4.12
2026-06-16 15:18:01.574331,38.69
2026-06-16 15:18:01.590202,119.09
2026-06-16 15:18:01.590202,167.25
2026-06-16 15:18:01.607632,65.92
2026-06-16 15:18:01.616850,-92.62
2026-06-16 15:18:01.624209,-112.06
2026-06-16 15:18:01.624209,43.72
2026-06-16 15:18:01.640785,166.89
2026-06-16 15:18:01.644061,98.39
2026-06-16 15:18:01.655841,-1.6
2026-06-16 15:18:01.663087,-23.48
2026-06-16 15:18:01.672439,-12.42
2026-06-16 15:18:01.674465,-44.2
2026-06-16 15:18:01.674465,-39.0
2026-06-16 15:18:01.690703,92.53
2026-06-16 15:18:01.690703,159.73
2026-06-16 15:18:01.707545,102.22
2026-06-16 15:18:01.716870,32.06
2026-06-16 15:18:01.724318,79.65
2026-06-16 15:18:01.724318,181.74
2026-06-16 15:18:01.740774,165.91
2026-06-16 15:18:01.740774,63.59
2026-06-16 15:18:01.757400,50.34
2026-06-16 15:18:01.757400,117.74
2026-06-16 15:18:01.773431,99.25
2026-06-16 15:18:01.774278,-44.53
2026-06-16 15:18:01.789063,-122.91
2026-06-16 15:18:01.795488,-66.58
2026-06-16 15:18:01.801513,-37.39
2026-06-16 15:18:01.807689,-116.8
2026-06-16 15:18:01.816990,-189.85
2026-06-16 15:18:01.824276,-91.39
2026-06-16 15:18:01.824276,53.34
2026-06-16 15:18:01.840906,75.96
2026-06-16 15:18:01.840906,12.89
2026-06-16 15:18:01.857451,34.72
2026-06-16 15:18:01.857451,83.3
2026-06-16 15:18:01.874376,53.04
2026-06-16 15:18:01.874376,-18.87
2026-06-16 15:18:01.890022,9.08
2026-06-16 15:18:01.891019,97.59
2026-06-16 15:18:01.905650,90.14
2026-06-16 15:18:01.908459,-36.67
2026-06-16 15:18:01.922234,-124.05
2026-06-16 15:18:01.928647,-79.65
2026-06-16 15:18:01.928647,-41.44
2026-06-16 15:18:01.941098,-119.84
2026-06-16 15:18:01.952415,-210.78
2026-06-16 15:18:01.957130,-165.95
2026-06-16 15:18:01.957130,-45.72
2026-06-16 15:18:01.973893,27.15
2026-06-16 15:18:01.973893,15.07
2026-06-16 15:18:01.990638,42.85
2026-06-16 15:18:01.990638,110.3
2026-06-16 15:18:02.007557,117.71
2026-06-16 15:18:02.007557,25.58
2026-06-16 15:18:02.023830,-34.25
2026-06-16 15:18:02.023830,-17.16
2026-06-16 15:18:02.038964,-46.93
2026-06-16 15:18:02.040536,-124.3
2026-06-16 15:18:02.049197,-154.52
2026-06-16 15:18:02.057477,-110.97
2026-06-16 15:18:02.057477,-90.51
2026-06-16 15:18:02.073983,-159.71
2026-06-16 15:18:02.073983,-202.69
2026-06-16 15:18:02.090936,-140.98
2026-06-16 15:18:02.090936,-71.62
2026-06-16 15:18:02.107515,-64.3
2026-06-16 15:18:02.107515,-120.69
2026-06-16 15:18:02.123514,-106.16
2026-06-16 15:18:02.123514,-40.95
2026-06-16 15:18:02.139936,3.03
2026-06-16 15:18:02.142818,7.99
2026-06-16 15:18:02.155493,-4.98
2026-06-16 15:18:02.163490,36.83
2026-06-16 15:18:02.172096,91.37
2026-06-16 15:18:02.179014,109.82
2026-06-16 15:18:02.179014,93.35
2026-06-16 15:18:02.190712,71.99
2026-06-16 15:18:02.190712,83.57
2026-06-16 15:18:02.207466,71.21
2026-06-16 15:18:02.218320,33.05
2026-06-16 15:18:02.223844,17.95
2026-06-16 15:18:02.223844,-1.04
2026-06-16 15:18:02.240796,2.95
2026-06-16 15:18:02.249265,-13.98
2026-06-16 15:18:02.257266,-35.8
2026-06-16 15:18:02.265266,-36.62
2026-06-16 15:18:02.273265,11.32
2026-06-16 15:18:02.275270,133.65
2026-06-16 15:18:02.288768,225.52
2026-06-16 15:18:02.290777,217.43
2026-06-16 15:18:02.290777,106.89
2026-06-16 15:18:02.307071,32.72
2026-06-16 15:18:02.318498,70.37
2026-06-16 15:18:02.324011,136.68
2026-06-16 15:18:02.324011,118.09
2026-06-16 15:18:02.340691,30.93
2026-06-16 15:18:02.340691,-41.86
2026-06-16 15:18:02.357147,-16.77
2026-06-16 15:18:02.357147,3.21
2026-06-16 15:18:02.373745,-30.63
2026-06-16 15:18:02.373745,-101.13
2026-06-16 15:18:02.390777,-95.64
2026-06-16 15:18:02.390777,-38.45
2026-06-16 15:18:02.406449,-9.4
2026-06-16 15:18:02.407454,-16.32
2026-06-16 15:18:02.422067,-1.32
2026-06-16 15:18:02.424022,30.53
2026-06-16 15:18:02.436482,16.45
2026-06-16 15:18:02.440721,21.34
2026-06-16 15:18:02.440721,122.72
2026-06-16 15:18:02.458152,235.54
2026-06-16 15:18:02.458152,152.77
2026-06-16 15:18:02.473956,-84.8
2026-06-16 15:18:02.473956,-220.69
2026-06-16 15:18:02.490812,-112.13
2026-06-16 15:18:02.490812,20.77
2026-06-16 15:18:02.507433,-48.99
2026-06-16 15:18:02.507433,-207.94
2026-06-16 15:18:02.523202,-240.73
2026-06-16 15:18:02.524063,-169.88
2026-06-16 15:18:02.538975,-158.08
2026-06-16 15:18:02.546792,-203.06
2026-06-16 15:18:02.554830,-169.21
2026-06-16 15:18:02.557281,-87.77
2026-06-16 15:18:02.557281,-112.21
2026-06-16 15:18:02.573596,-160.4
2026-06-16 15:18:02.573596,-127.76
2026-06-16 15:18:02.590705,-35.58
2026-06-16 15:18:02.590705,-57.29
2026-06-16 15:18:02.606901,-165.46
2026-06-16 15:18:02.606901,-195.48
2026-06-16 15:18:02.623278,-98.98
2026-06-16 15:18:02.623278,-15.9
2026-06-16 15:18:02.640528,-44.68
2026-06-16 15:18:02.640528,-117.09
2026-06-16 15:18:02.656525,-104.56
2026-06-16 15:18:02.657067,-71.21
2026-06-16 15:18:02.672213,-91.74
2026-06-16 15:18:02.679436,-147.01
2026-06-16 15:18:02.685211,-143.29
2026-06-16 15:18:02.691612,-88.84
2026-06-16 15:18:02.691612,-114.27
2026-06-16 15:18:02.707180,-192.3
2026-06-16 15:18:02.707180,-239.1
2026-06-16 15:18:02.723654,-214.02
2026-06-16 15:18:02.723654,-204.99
2026-06-16 15:18:02.740255,-268.64
2026-06-16 15:18:02.740255,-308.09
2026-06-16 15:18:02.757823,-254.81
2026-06-16 15:18:02.760767,-199.81
2026-06-16 15:18:02.773181,-268.46
2026-06-16 15:18:02.773749,-331.79
2026-06-16 15:18:02.788620,-289.34
2026-06-16 15:18:02.790365,-283.91
2026-06-16 15:18:02.790365,-477.51
2026-06-16 15:18:02.807228,-833.33
2026-06-16 15:18:02.820178,-1171.44
2026-06-16 15:18:02.827888,-1332.74
2026-06-16 15:18:02.835695,-1402.69
2026-06-16 15:18:02.840603,-1440.45
2026-06-16 15:18:02.840603,-1391.46
2026-06-16 15:18:02.857274,-1255.15
2026-06-16 15:18:02.863443,-1164.3
2026-06-16 15:18:02.873691,-1110.72
2026-06-16 15:18:02.873691,-1064.37
2026-06-16 15:18:02.890027,-1175.47
2026-06-16 15:18:02.890027,-1383.51
2026-06-16 15:18:02.905392,-1564.65
2026-06-16 15:18:02.907504,-1757.82
2026-06-16 15:18:02.922013,-2076.38
2026-06-16 15:18:02.924419,-2580.42
2026-06-16 15:18:02.924419,-3005.32
2026-06-16 15:18:02.940110,-3087.8
2026-06-16 15:18:02.953187,-2883.31
2026-06-16 15:18:02.957094,-2672.88
2026-06-16 15:18:02.957094,-2568.97
2026-06-16 15:18:02.973461,-2453.64
2026-06-16 15:18:02.973461,-2302.07
2026-06-16 15:18:02.990119,-2114.45
2026-06-16 15:18:02.990119,-1983.48
2026-06-16 15:18:03.006950,-1936.75
2026-06-16 15:18:03.015852,-1930.05
2026-06-16 15:18:03.023260,-1865.67
2026-06-16 15:18:03.023260,-1712.07
2026-06-16 15:18:03.038582,-1479.63
2026-06-16 15:18:03.040524,-1207.57
2026-06-16 15:18:03.040524,-956.76
2026-06-16 15:18:03.058471,-657.45
2026-06-16 15:18:03.058471,-316.86
2026-06-16 15:18:03.073676,-10.81
2026-06-16 15:18:03.073676,89.74
2026-06-16 15:18:03.090581,44.52
2026-06-16 15:18:03.090581,41.31
2026-06-16 15:18:03.107250,167.47
2026-06-16 15:18:03.107250,365.63
2026-06-16 15:18:03.123843,459.32
2026-06-16 15:18:03.131891,449.07
2026-06-16 15:18:03.140117,330.41
2026-06-16 15:18:03.140117,174.53
2026-06-16 15:18:03.156303,132.86
2026-06-16 15:18:03.157303,222.74
2026-06-16 15:18:03.171934,282.32
2026-06-16 15:18:03.173952,104.8
2026-06-16 15:18:03.186910,-136.52
2026-06-16 15:18:03.195527,-302.0
2026-06-16 15:18:03.199124,-427.85
2026-06-16 15:18:03.206676,-559.04
2026-06-16 15:18:03.206676,-622.91
2026-06-16 15:18:03.223719,-444.68
2026-06-16 15:18:03.223719,-216.59
2026-06-16 15:18:03.240217,-141.87
2026-06-16 15:18:03.240217,-153.1
2026-06-16 15:18:03.257208,-6.07
2026-06-16 15:18:03.257208,289.47
2026-06-16 15:18:03.273418,490.01
2026-06-16 15:18:03.273418,532.33
2026-06-16 15:18:03.288484,536.64
2026-06-16 15:18:03.290110,640.42
2026-06-16 15:18:03.290110,826.27
2026-06-16 15:18:03.311525,1016.16
2026-06-16 15:18:03.313538,1132.47
2026-06-16 15:18:03.322933,1205.41
2026-06-16 15:18:03.322933,1259.09
2026-06-16 15:18:03.340269,1307.52
2026-06-16 15:18:03.340269,1343.76
2026-06-16 15:18:03.357077,1355.95
2026-06-16 15:18:03.357077,1320.31
2026-06-16 15:18:03.374496,1247.05
2026-06-16 15:18:03.380560,1226.88
2026-06-16 15:18:03.390026,1310.3
2026-06-16 15:18:03.390026,1403.25
2026-06-16 15:18:03.406243,1377.33
2026-06-16 15:18:03.406954,1242.08
2026-06-16 15:18:03.421792,1139.36
2026-06-16 15:18:03.423376,1089.88
2026-06-16 15:18:03.423376,1024.73
2026-06-16 15:18:03.440040,989.76
2026-06-16 15:18:03.440040,1074.36
2026-06-16 15:18:03.456829,1272.96
2026-06-16 15:18:03.456829,1443.71
2026-06-16 15:18:03.473565,1534.99
2026-06-16 15:18:03.473565,1591.0
2026-06-16 15:18:03.490111,1717.37
2026-06-16 15:18:03.490111,1838.13
2026-06-16 15:18:03.506967,1860.78
2026-06-16 15:18:03.506967,1850.48
2026-06-16 15:18:03.523137,1875.06
2026-06-16 15:18:03.523137,1913.45
2026-06-16 15:18:03.538434,1855.12
2026-06-16 15:18:03.540292,1649.83
2026-06-16 15:18:03.540292,1397.81
2026-06-16 15:18:03.556955,1248.53
2026-06-16 15:18:03.556955,1149.76
2026-06-16 15:18:03.573802,1003.71
2026-06-16 15:18:03.573802,831.53
2026-06-16 15:18:03.590293,725.89
2026-06-16 15:18:03.590293,710.32
2026-06-16 15:18:03.607567,759.5
2026-06-16 15:18:03.617501,782.57
2026-06-16 15:18:03.623684,695.08
2026-06-16 15:18:03.623684,542.35
2026-06-16 15:18:03.640227,433.17
2026-06-16 15:18:03.640227,252.9
2026-06-16 15:18:03.656091,-53.83
2026-06-16 15:18:03.657016,-333.15
2026-06-16 15:18:03.671652,-390.19
2026-06-16 15:18:03.679399,-178.3
2026-06-16 15:18:03.687431,100.2
2026-06-16 15:18:03.689962,297.7
2026-06-16 15:18:03.699436,406.66
2026-06-16 15:18:03.708222,504.13
2026-06-16 15:18:03.718549,520.51
2026-06-16 15:18:03.723434,480.1
2026-06-16 15:18:03.723434,453.82
2026-06-16 15:18:03.740033,422.69
2026-06-16 15:18:03.740033,383.77
2026-06-16 15:18:03.756808,442.54
2026-06-16 15:18:03.756808,582.61
2026-06-16 15:18:03.773627,701.09
2026-06-16 15:18:03.773627,771.22
2026-06-16 15:18:03.788278,780.29
2026-06-16 15:18:03.789834,782.36
2026-06-16 15:18:03.789834,777.46
2026-06-16 15:18:03.806526,711.88
2026-06-16 15:18:03.806526,613.79
2026-06-16 15:18:03.823207,567.94
2026-06-16 15:18:03.823207,542.22
2026-06-16 15:18:03.839828,510.65
2026-06-16 15:18:03.839828,435.46
2026-06-16 15:18:03.859415,345.72
2026-06-16 15:18:03.867451,289.27
2026-06-16 15:18:03.873203,336.58
2026-06-16 15:18:03.873203,410.52
2026-06-16 15:18:03.889817,396.52
2026-06-16 15:18:03.889817,329.87
2026-06-16 15:18:03.905957,350.11
2026-06-16 15:18:03.906666,456.81
2026-06-16 15:18:03.921587,498.31
2026-06-16 15:18:03.923144,449.05
2026-06-16 15:18:03.923144,408.0
2026-06-16 15:18:03.939863,494.52
2026-06-16 15:18:03.939863,591.54
2026-06-16 15:18:03.956902,607.49
2026-06-16 15:18:03.956902,597.49
2026-06-16 15:18:03.975852,625.35
2026-06-16 15:18:03.983894,633.16
2026-06-16 15:18:03.989668,649.9
2026-06-16 15:18:03.989668,767.04
2026-06-16 15:18:04.006830,948.28
2026-06-16 15:18:04.006830,971.4
2026-06-16 15:18:04.023024,794.4
2026-06-16 15:18:04.023024,621.28
2026-06-16 15:18:04.038277,563.45
2026-06-16 15:18:04.040106,558.64
2026-06-16 15:18:04.054912,545.9
2026-06-16 15:18:04.056921,562.08
2026-06-16 15:18:04.068068,604.04
2026-06-16 15:18:04.073898,598.04
2026-06-16 15:18:04.073898,489.58
2026-06-16 15:18:04.089745,381.66
2026-06-16 15:18:04.089745,332.98
2026-06-16 15:18:04.107013,283.56
2026-06-16 15:18:04.107013,150.8
2026-06-16 15:18:04.123387,39.6
2026-06-16 15:18:04.130940,59.3
2026-06-16 15:18:04.140236,94.83
2026-06-16 15:18:04.140236,35.65
2026-06-16 15:18:04.156081,-76.96
2026-06-16 15:18:04.157083,-99.46
2026-06-16 15:18:04.171419,14.46
2026-06-16 15:18:04.173364,157.67
2026-06-16 15:18:04.173364,200.66
2026-06-16 15:18:04.192900,201.65
2026-06-16 15:18:04.202884,220.54
2026-06-16 15:18:04.206685,276.15
2026-06-16 15:18:04.206685,313.58
2026-06-16 15:18:04.226759,306.04
2026-06-16 15:18:04.233111,226.9
2026-06-16 15:18:04.239614,115.32
2026-06-16 15:18:04.248826,69.97
2026-06-16 15:18:04.256473,85.54
2026-06-16 15:18:04.256473,89.09
2026-06-16 15:18:04.273344,108.55
2026-06-16 15:18:04.273344,161.73
2026-06-16 15:18:04.289200,173.86
2026-06-16 15:18:04.289724,87.42
2026-06-16 15:18:04.304811,1.41
2026-06-16 15:18:04.307258,29.27
2026-06-16 15:18:04.307258,83.84
2026-06-16 15:18:04.323454,62.53
2026-06-16 15:18:04.323454,-59.17
2026-06-16 15:18:04.339832,-138.48
2026-06-16 15:18:04.349269,-134.8
2026-06-16 15:18:04.357111,-144.08
2026-06-16 15:18:04.357111,-211.02
2026-06-16 15:18:04.373199,-244.79
2026-06-16 15:18:04.373199,-203.76
2026-06-16 15:18:04.389949,-151.0
2026-06-16 15:18:04.389949,-107.46
2026-06-16 15:18:04.406017,-55.19
2026-06-16 15:18:04.413927,-11.13
2026-06-16 15:18:04.421526,4.85
2026-06-16 15:18:04.423307,32.68
2026-06-16 15:18:04.423307,60.38
2026-06-16 15:18:04.439779,57.09
2026-06-16 15:18:04.439779,-24.78
2026-06-16 15:18:04.456743,-116.2
2026-06-16 15:18:04.456743,-152.43
2026-06-16 15:18:04.473088,-129.78
2026-06-16 15:18:04.473088,-125.15
2026-06-16 15:18:04.489721,-160.35
2026-06-16 15:18:04.489721,-201.34
2026-06-16 15:18:04.506601,-228.19
2026-06-16 15:18:04.514979,-252.92
2026-06-16 15:18:04.522899,-200.91
2026-06-16 15:18:04.522899,-86.47
2026-06-16 15:18:04.538111,-54.2
2026-06-16 15:18:04.539770,-122.58
2026-06-16 15:18:04.554792,-199.58
2026-06-16 15:18:04.556945,-156.79
2026-06-16 15:18:04.556945,-100.29
2026-06-16 15:18:04.572850,-156.5
2026-06-16 15:18:04.572850,-279.1
2026-06-16 15:18:04.590018,-282.68
2026-06-16 15:18:04.590018,-149.93
2026-06-16 15:18:04.606503,-88.48
2026-06-16 15:18:04.606503,-170.63
2026-06-16 15:18:04.623067,-237.43
2026-06-16 15:18:04.631705,-192.46
2026-06-16 15:18:04.639544,-113.89
2026-06-16 15:18:04.639544,-139.19
2026-06-16 15:18:04.655861,-204.17
2026-06-16 15:18:04.656513,-172.3
2026-06-16 15:18:04.671545,-75.92
2026-06-16 15:18:04.673557,5.05
2026-06-16 15:18:04.673557,-23.83
2026-06-16 15:18:04.689843,-115.25
2026-06-16 15:18:04.689843,-164.42
2026-06-16 15:18:04.706597,-109.87
2026-06-16 15:18:04.715830,-35.69
2026-06-16 15:18:04.722967,-20.59
2026-06-16 15:18:04.733582,-52.32
2026-06-16 15:18:04.742142,-40.12
2026-06-16 15:18:04.748759,18.78
2026-06-16 15:18:04.757109,67.45
2026-06-16 15:18:04.757109,61.14
2026-06-16 15:18:04.773049,72.77
2026-06-16 15:18:04.781082,112.21
2026-06-16 15:18:04.788979,86.77
2026-06-16 15:18:04.789867,31.61
2026-06-16 15:18:04.804709,14.54
2026-06-16 15:18:04.807202,58.25
2026-06-16 15:18:04.807202,73.88
2026-06-16 15:18:04.822756,38.68
2026-06-16 15:18:04.822756,13.61
2026-06-16 15:18:04.839637,65.29
2026-06-16 15:18:04.839637,90.83
2026-06-16 15:18:04.856324,24.71
2026-06-16 15:18:04.856324,-75.91
2026-06-16 15:18:04.873240,-118.32
2026-06-16 15:18:04.873240,-127.68
2026-06-16 15:18:04.889718,-94.2
2026-06-16 15:18:04.889718,-37.02
2026-06-16 15:18:04.905707,-4.99
2026-06-16 15:18:04.906396,11.95
2026-06-16 15:18:04.921186,25.82
2026-06-16 15:18:04.929396,73.45
2026-06-16 15:18:04.937428,75.07
2026-06-16 15:18:04.939784,-28.78
2026-06-16 15:18:04.951924,-156.0
2026-06-16 15:18:04.956180,-124.37
2026-06-16 15:18:04.956180,5.6
2026-06-16 15:18:04.972767,3.58
2026-06-16 15:18:04.972767,-149.67
2026-06-16 15:18:04.989401,-215.59
2026-06-16 15:18:04.989401,-131.92
2026-06-16 15:18:05.006588,-37.73
2026-06-16 15:18:05.006588,-64.41
2026-06-16 15:18:05.022696,-113.84
2026-06-16 15:18:05.022696,-60.53
2026-06-16 15:18:05.038843,-24.41
2026-06-16 15:18:05.039509,-120.8
2026-06-16 15:18:05.054502,-310.24
2026-06-16 15:18:05.056430,-393.27
2026-06-16 15:18:05.056430,-362.45
2026-06-16 15:18:05.072931,-369.59
2026-06-16 15:18:05.072931,-419.48
2026-06-16 15:18:05.089864,-386.54
2026-06-16 15:18:05.089864,-249.29
2026-06-16 15:18:05.106463,-164.46
2026-06-16 15:18:05.106463,-213.39
2026-06-16 15:18:05.122890,-274.01
2026-06-16 15:18:05.122890,-269.66
2026-06-16 15:18:05.139942,-231.49
2026-06-16 15:18:05.139942,-216.4
2026-06-16 15:18:05.156209,-240.2
2026-06-16 15:18:05.158862,-247.95
2026-06-16 15:18:05.171326,-263.63
2026-06-16 15:18:05.173669,-252.36
2026-06-16 15:18:05.173669,-183.44
2026-06-16 15:18:05.189748,-103.91
2026-06-16 15:18:05.189748,-119.32
2026-06-16 15:18:05.206410,-188.37
2026-06-16 15:18:05.206410,-205.34
2026-06-16 15:18:05.223366,-144.61
2026-06-16 15:18:05.223366,-100.11
2026-06-16 15:18:05.239852,-95.63
2026-06-16 15:18:05.244134,-141.91
2026-06-16 15:18:05.257789,-207.87
2026-06-16 15:18:05.259235,-236.68
2026-06-16 15:18:05.273241,-207.64
2026-06-16 15:18:05.273241,-117.05
2026-06-16 15:18:05.289103,-49.8
2026-06-16 15:18:05.292427,-75.42
2026-06-16 15:18:05.304516,-169.57
2026-06-16 15:18:05.306146,-212.5
2026-06-16 15:18:05.306146,-185.57
2026-06-16 15:18:05.322627,-162.75
2026-06-16 15:18:05.322627,-214.67
2026-06-16 15:18:05.339579,-272.3
2026-06-16 15:18:05.339579,-267.96
2026-06-16 15:18:05.356483,-174.08
2026-06-16 15:18:05.356483,-123.46
2026-06-16 15:18:05.373172,-195.48
2026-06-16 15:18:05.373172,-286.04
2026-06-16 15:18:05.389493,-263.71
2026-06-16 15:18:05.389493,-139.02
2026-06-16 15:18:05.405666,-55.74
2026-06-16 15:18:05.413255,-65.41
2026-06-16 15:18:05.421291,-71.05
2026-06-16 15:18:05.422746,-3.04
2026-06-16 15:18:05.437761,81.55
2026-06-16 15:18:05.439847,93.09
2026-06-16 15:18:05.439847,61.78
2026-06-16 15:18:05.456216,69.43
2026-06-16 15:18:05.456216,50.18
2026-06-16 15:18:05.473285,-29.68
2026-06-16 15:18:05.473285,-134.0
2026-06-16 15:18:05.490195,-133.33
2026-06-16 15:18:05.490195,-83.91
2026-06-16 15:18:05.506381,-112.35
2026-06-16 15:18:05.506381,-201.33
2026-06-16 15:18:05.523243,-241.12
2026-06-16 15:18:05.523243,-177.23
2026-06-16 15:18:05.538885,-108.69
2026-06-16 15:18:05.539419,-126.05
2026-06-16 15:18:05.554550,-149.3
2026-06-16 15:18:05.561412,-109.75
2026-06-16 15:18:05.569439,-70.4
2026-06-16 15:18:05.572681,-105.86
2026-06-16 15:18:05.584124,-174.99
2026-06-16 15:18:05.589640,-171.13
2026-06-16 15:18:05.589640,-139.42
2026-06-16 15:18:05.606580,-137.73
2026-06-16 15:18:05.606580,-175.85
2026-06-16 15:18:05.623231,-154.07
2026-06-16 15:18:05.623231,-77.68
2026-06-16 15:18:05.639831,-88.24
2026-06-16 15:18:05.639831,-192.27
2026-06-16 15:18:05.656453,-246.04
2026-06-16 15:18:05.663128,-176.15
2026-06-16 15:18:05.671175,-106.62
2026-06-16 15:18:05.673268,-158.82
2026-06-16 15:18:05.687738,-244.59
2026-06-16 15:18:05.689392,-195.61
2026-06-16 15:18:05.689392,-58.31
2026-06-16 15:18:05.709874,13.62
2026-06-16 15:18:05.717914,-22.27
2026-06-16 15:18:05.725189,-49.02
2026-06-16 15:18:05.727559,0.97
2026-06-16 15:18:05.739519,46.74
2026-06-16 15:18:05.739519,44.51
2026-06-16 15:18:05.756514,81.1
2026-06-16 15:18:05.760132,165.27
2026-06-16 15:18:05.773226,193.3
2026-06-16 15:18:05.780251,128.66
2026-06-16 15:18:05.788776,47.42
2026-06-16 15:18:05.789328,4.4
2026-06-16 15:18:05.804395,-25.48
2026-06-16 15:18:05.806261,-48.23
2026-06-16 15:18:05.813748,-77.84
2026-06-16 15:18:05.822848,-92.38
2026-06-16 15:18:05.822848,-79.98
2026-06-16 15:18:05.839194,-21.87
2026-06-16 15:18:05.839194,67.79
2026-06-16 15:18:05.855990,110.24
2026-06-16 15:18:05.855990,91.78
2026-06-16 15:18:05.872946,93.31
2026-06-16 15:18:05.872946,184.38
2026-06-16 15:18:05.889721,241.17
2026-06-16 15:18:05.889721,144.44
2026-06-16 15:18:05.906276,26.31
2026-06-16 15:18:05.906276,39.12
2026-06-16 15:18:05.921083,102.6
2026-06-16 15:18:05.922984,96.12
2026-06-16 15:18:05.922984,-1.87
2026-06-16 15:18:05.940172,-71.51
2026-06-16 15:18:05.940172,-107.97
2026-06-16 15:18:05.955957,-138.28
2026-06-16 15:18:05.955957,-188.33
2026-06-16 15:18:05.972716,-187.39
2026-06-16 15:18:05.972716,-118.79
2026-06-16 15:18:05.989288,-57.5
2026-06-16 15:18:05.989288,-38.31
2026-06-16 15:18:06.006044,-76.92
2026-06-16 15:18:06.006044,-141.21
2026-06-16 15:18:06.023403,-147.47
2026-06-16 15:18:06.023403,-76.09
2026-06-16 15:18:06.038776,-44.87
2026-06-16 15:18:06.039350,-85.44
2026-06-16 15:18:06.054404,-127.79
2026-06-16 15:18:06.056116,-94.32
2026-06-16 15:18:06.056116,-26.19
2026-06-16 15:18:06.072876,1.8
2026-06-16 15:18:06.072876,-19.1
2026-06-16 15:18:06.089427,-8.06
2026-06-16 15:18:06.089427,13.87
2026-06-16 15:18:06.106027,-16.05
2026-06-16 15:18:06.106027,-52.78
2026-06-16 15:18:06.123707,-5.76
2026-06-16 15:18:06.123707,73.87
2026-06-16 15:18:06.139684,94.4
2026-06-16 15:18:06.139684,41.19
2026-06-16 15:18:06.155527,-56.52
2026-06-16 15:18:06.156768,-105.0
2026-06-16 15:18:06.172009,-77.61
2026-06-16 15:18:06.173014,-11.55
2026-06-16 15:18:06.187491,8.41
2026-06-16 15:18:06.189160,-13.52
2026-06-16 15:18:06.189160,-67.19
2026-06-16 15:18:06.206241,-68.84
2026-06-16 15:18:06.206241,-50.59
2026-06-16 15:18:06.226234,-95.11
2026-06-16 15:18:06.232868,-176.22
2026-06-16 15:18:06.239442,-181.31
2026-06-16 15:18:06.239442,-110.75
2026-06-16 15:18:06.255847,-43.54
2026-06-16 15:18:06.255847,-33.37
2026-06-16 15:18:06.272794,-62.06
2026-06-16 15:18:06.280842,-39.86
2026-06-16 15:18:06.288987,46.91
2026-06-16 15:18:06.289569,120.3
2026-06-16 15:18:06.304441,85.87
2026-06-16 15:18:06.306256,19.77
2026-06-16 15:18:06.320251,36.59
2026-06-16 15:18:06.324402,140.88
2026-06-16 15:18:06.324402,201.87
2026-06-16 15:18:06.339448,166.03
2026-06-16 15:18:06.339448,90.58
2026-06-16 15:18:06.355983,94.1
2026-06-16 15:18:06.355983,123.48
2026-06-16 15:18:06.373036,115.9
2026-06-16 15:18:06.373036,64.58
2026-06-16 15:18:06.389112,15.5
2026-06-16 15:18:06.389112,-4.48
2026-06-16 15:18:06.406142,-16.4
2026-06-16 15:18:06.406142,-6.36
2026-06-16 15:18:06.421950,-29.22
2026-06-16 15:18:06.424463,-72.85
2026-06-16 15:18:06.437602,-64.53
2026-06-16 15:18:06.439383,28.33
2026-06-16 15:18:06.439383,119.73
2026-06-16 15:18:06.456269,92.27
2026-06-16 15:18:06.456269,-9.69
2026-06-16 15:18:06.472454,4.29
2026-06-16 15:18:06.472454,120.69
2026-06-16 15:18:06.489770,131.03
2026-06-16 15:18:06.489770,-57.68
2026-06-16 15:18:06.506461,-205.65
2026-06-16 15:18:06.506461,-104.13
2026-06-16 15:18:06.522828,66.54
2026-06-16 15:18:06.524951,71.18
2026-06-16 15:18:06.539316,-58.52
2026-06-16 15:18:06.539316,-77.14
2026-06-16 15:18:06.554487,31.7
2026-06-16 15:18:06.559076,103.19
2026-06-16 15:18:06.559076,47.95
2026-06-16 15:18:06.572917,-13.98
2026-06-16 15:18:06.572917,3.0
2026-06-16 15:18:06.589458,68.66
2026-06-16 15:18:06.589458,81.25
2026-06-16 15:18:06.606165,5.22
2026-06-16 15:18:06.606165,-89.33
2026-06-16 15:18:06.622885,-95.85
2026-06-16 15:18:06.625567,-27.71
2026-06-16 15:18:06.639000,-12.65
2026-06-16 15:18:06.639000,-65.32
2026-06-16 15:18:06.656064,-81.91
2026-06-16 15:18:06.656064,15.02
2026-06-16 15:18:06.671020,119.42
2026-06-16 15:18:06.672971,158.62
2026-06-16 15:18:06.687616,141.91
2026-06-16 15:18:06.689953,133.24
2026-06-16 15:18:06.689953,120.63
2026-06-16 15:18:06.705732,100.13
2026-06-16 15:18:06.705732,62.81
2026-06-16 15:18:06.725603,32.65
2026-06-16 15:18:06.725603,9.6
2026-06-16 15:18:06.739056,40.4
2026-06-16 15:18:06.739056,67.06
2026-06-16 15:18:06.756288,-13.87
2026-06-16 15:18:06.756288,-160.06
2026-06-16 15:18:06.772589,-232.89
2026-06-16 15:18:06.772589,-152.13
2026-06-16 15:18:06.788912,-85.7
2026-06-16 15:18:06.793392,-138.01
2026-06-16 15:18:06.804207,-185.08
2026-06-16 15:18:06.806147,-107.53
2026-06-16 15:18:06.806147,-30.38
2026-06-16 15:18:06.825757,-65.06
2026-06-16 15:18:06.825757,-137.37
2026-06-16 15:18:06.839553,-89.91
2026-06-16 15:18:06.839553,7.05
2026-06-16 15:18:06.856164,72.69
2026-06-16 15:18:06.856164,55.41
2026-06-16 15:18:06.872581,-26.46
2026-06-16 15:18:06.872581,-124.83
2026-06-16 15:18:06.889043,-183.91
2026-06-16 15:18:06.889043,-106.37
2026-06-16 15:18:06.906069,26.49
2026-06-16 15:18:06.906069,81.09
2026-06-16 15:18:06.921854,74.71
2026-06-16 15:18:06.925834,108.17
2026-06-16 15:18:06.937449,180.26
2026-06-16 15:18:06.939346,167.42
2026-06-16 15:18:06.939346,54.15
2026-06-16 15:18:06.955960,-13.78
2026-06-16 15:18:06.967951,9.17
2026-06-16 15:18:06.972579,77.78
2026-06-16 15:18:06.972579,68.44
2026-06-16 15:18:06.989451,-23.45
2026-06-16 15:18:06.989451,-113.87
2026-06-16 15:18:07.005813,-139.17
2026-06-16 15:18:07.005813,-114.6
2026-06-16 15:18:07.022430,-139.9
2026-06-16 15:18:07.025801,-229.74
2026-06-16 15:18:07.039258,-276.35
2026-06-16 15:18:07.039258,-225.22
2026-06-16 15:18:07.053998,-154.44
2026-06-16 15:18:07.056011,-107.9
2026-06-16 15:18:07.056011,-80.5
2026-06-16 15:18:07.072386,-27.36
2026-06-16 15:18:07.072386,-1.35
2026-06-16 15:18:07.089031,-42.14
2026-06-16 15:18:07.089031,-85.71
2026-06-16 15:18:07.106109,-50.46
2026-06-16 15:18:07.109939,29.39
2026-06-16 15:18:07.122363,1.39
2026-06-16 15:18:07.125952,-122.99
2026-06-16 15:18:07.139525,-197.0
2026-06-16 15:18:07.139525,-174.13
2026-06-16 15:18:07.156117,-146.39
2026-06-16 15:18:07.156569,-216.31
2026-06-16 15:18:07.171657,-295.82
2026-06-16 15:18:07.172647,-240.61
2026-06-16 15:18:07.187368,-187.67
2026-06-16 15:18:07.189378,-242.45
2026-06-16 15:18:07.189378,-345.71
2026-06-16 15:18:07.205455,-326.07
2026-06-16 15:18:07.205455,-207.03
2026-06-16 15:18:07.226015,-153.26
2026-06-16 15:18:07.226015,-176.38
2026-06-16 15:18:07.238745,-142.66
2026-06-16 15:18:07.238745,-21.55
2026-06-16 15:18:07.255462,31.29
2026-06-16 15:18:07.255462,-50.46
2026-06-16 15:18:07.272123,-99.95
2026-06-16 15:18:07.272123,-46.72
2026-06-16 15:18:07.288506,29.14
2026-06-16 15:18:07.289893,63.81
2026-06-16 15:18:07.303905,8.77
2026-06-16 15:18:07.309658,-77.84
2026-06-16 15:18:07.309658,-168.99
2026-06-16 15:18:07.326175,-194.01
2026-06-16 15:18:07.326175,-128.37
2026-06-16 15:18:07.338820,-31.21
2026-06-16 15:18:07.338820,12.72
2026-06-16 15:18:07.355988,14.65
2026-06-16 15:18:07.355988,45.42
2026-06-16 15:18:07.372867,58.13
2026-06-16 15:18:07.372867,14.06
2026-06-16 15:18:07.389293,24.93
2026-06-16 15:18:07.394857,122.32
2026-06-16 15:18:07.406175,198.32
2026-06-16 15:18:07.406540,89.87
2026-06-16 15:18:07.421724,-122.51
2026-06-16 15:18:07.426484,-122.9
2026-06-16 15:18:07.437258,75.72
2026-06-16 15:18:07.439114,197.73
2026-06-16 15:18:07.452544,78.34
2026-06-16 15:18:07.455614,-61.36
2026-06-16 15:18:07.455614,-34.18
2026-06-16 15:18:07.472645,47.58
2026-06-16 15:18:07.472645,43.36
2026-06-16 15:18:07.489986,27.22
2026-06-16 15:18:07.489986,108.68
2026-06-16 15:18:07.506400,160.87
2026-06-16 15:18:07.506400,40.66
2026-06-16 15:18:07.522696,-67.0
2026-06-16 15:18:07.526750,21.89
2026-06-16 15:18:07.539030,156.11
2026-06-16 15:18:07.539030,119.51
2026-06-16 15:18:07.555057,-43.28
2026-06-16 15:18:07.555699,-81.87
2026-06-16 15:18:07.555699,4.11
2026-06-16 15:18:07.572497,27.97
2026-06-16 15:18:07.572497,-76.64
2026-06-16 15:18:07.589172,-130.98
2026-06-16 15:18:07.589172,-57.69
2026-06-16 15:18:07.605844,20.2
2026-06-16 15:18:07.605844,-13.73
2026-06-16 15:18:07.622741,-61.42
2026-06-16 15:18:07.626827,-17.33
2026-06-16 15:18:07.639149,66.34
2026-06-16 15:18:07.639149,77.94
2026-06-16 15:18:07.656117,-5.03
2026-06-16 15:18:07.656117,-49.78
2026-06-16 15:18:07.671553,3.2
2026-06-16 15:18:07.672549,78.81
2026-06-16 15:18:07.687477,81.4
2026-06-16 15:18:07.689500,41.19
2026-06-16 15:18:07.689500,15.12
2026-06-16 15:18:07.705581,27.98
2026-06-16 15:18:07.705581,52.71
2026-06-16 15:18:07.721941,14.64
2026-06-16 15:18:07.726978,-58.07
2026-06-16 15:18:07.739744,-26.94
2026-06-16 15:18:07.739744,67.72
2026-06-16 15:18:07.755675,49.48
2026-06-16 15:18:07.755675,-116.94
2026-06-16 15:18:07.772334,-269.58
2026-06-16 15:18:07.772334,-241.37
2026-06-16 15:18:07.788994,-103.85
2026-06-16 15:18:07.788994,-18.75
2026-06-16 15:18:07.803928,-39.55
2026-06-16 15:18:07.810352,-40.35
2026-06-16 15:18:07.820610,20.54
2026-06-16 15:18:07.827021,107.01
2026-06-16 15:18:07.827021,135.33
2026-06-16 15:18:07.839240,63.01
2026-06-16 15:18:07.839240,-40.78
2026-06-16 15:18:07.855670,-29.64
2026-06-16 15:18:07.855670,68.02
2026-06-16 15:18:07.872156,86.59
2026-06-16 15:18:07.872156,-34.24
2026-06-16 15:18:07.889268,-147.5
2026-06-16 15:18:07.889268,-121.89
2026-06-16 15:18:07.905459,-73.52
2026-06-16 15:18:07.905459,-110.96
2026-06-16 15:18:07.921539,-173.09
2026-06-16 15:18:07.927221,-116.5
2026-06-16 15:18:07.937214,-12.44
2026-06-16 15:18:07.939085,22.45
2026-06-16 15:18:07.939085,-18.46
2026-06-16 15:18:07.955776,-29.31
2026-06-16 15:18:07.967400,17.6
2026-06-16 15:18:07.972308,64.27
2026-06-16 15:18:07.983645,26.14
2026-06-16 15:18:07.988646,-44.63
2026-06-16 15:18:07.988646,-58.34
2026-06-16 15:18:08.005729,16.58
2026-06-16 15:18:08.005729,135.89
2026-06-16 15:18:08.022057,185.96
2026-06-16 15:18:08.027179,157.17
2026-06-16 15:18:08.038952,130.51
2026-06-16 15:18:08.038952,167.67
2026-06-16 15:18:08.054868,201.66
2026-06-16 15:18:08.055701,169.8
2026-06-16 15:18:08.070505,124.18
2026-06-16 15:18:08.072338,180.27
2026-06-16 15:18:08.072338,278.87
2026-06-16 15:18:08.088958,269.52
2026-06-16 15:18:08.088958,86.09
2026-06-16 15:18:08.105692,-114.34
2026-06-16 15:18:08.105692,-199.34
2026-06-16 15:18:08.121943,-148.59
2026-06-16 15:18:08.127321,-36.41
2026-06-16 15:18:08.139152,36.41
2026-06-16 15:18:08.139152,76.03
2026-06-16 15:18:08.155541,87.59
2026-06-16 15:18:08.155541,93.12
2026-06-16 15:18:08.171562,86.68
2026-06-16 15:18:08.172918,39.48
2026-06-16 15:18:08.187284,-2.5
2026-06-16 15:18:08.189299,41.29
2026-06-16 15:18:08.189299,94.81
2026-06-16 15:18:08.205305,46.58
2026-06-16 15:18:08.205305,-77.03
2026-06-16 15:18:08.221928,-99.53
2026-06-16 15:18:08.227247,-12.47
2026-06-16 15:18:08.238736,25.4
2026-06-16 15:18:08.238736,-50.35
2026-06-16 15:18:08.255875,-111.78
2026-06-16 15:18:08.255875,-55.5
2026-06-16 15:18:08.271760,5.47
2026-06-16 15:18:08.271760,-27.39
2026-06-16 15:18:08.289041,-66.06
2026-06-16 15:18:08.289673,-7.03
2026-06-16 15:18:08.303783,67.63
2026-06-16 15:18:08.305790,77.24
2026-06-16 15:18:08.320353,12.18
2026-06-16 15:18:08.327637,-52.55
2026-06-16 15:18:08.334506,-87.11
2026-06-16 15:18:08.339033,-69.76
2026-06-16 15:18:08.339033,-9.72
2026-06-16 15:18:08.355714,32.12
2026-06-16 15:18:08.355714,37.93
2026-06-16 15:18:08.372568,35.75
2026-06-16 15:18:08.372568,88.31
2026-06-16 15:18:08.388536,168.46
2026-06-16 15:18:08.396920,187.52
2026-06-16 15:18:08.405711,111.96
2026-06-16 15:18:08.405711,14.88
2026-06-16 15:18:08.421423,-28.97
2026-06-16 15:18:08.427792,-3.95
2026-06-16 15:18:08.437145,-7.91
2026-06-16 15:18:08.438863,-69.56
2026-06-16 15:18:08.438863,-136.87
2026-06-16 15:18:08.455563,-96.39
2026-06-16 15:18:08.455563,-33.22
2026-06-16 15:18:08.471765,-93.75
2026-06-16 15:18:08.471765,-221.64
2026-06-16 15:18:08.488457,-192.67
2026-06-16 15:18:08.488457,20.23
2026-06-16 15:18:08.505304,155.45
2026-06-16 15:18:08.505304,75.07
2026-06-16 15:18:08.521847,-93.46
2026-06-16 15:18:08.528116,-98.96
2026-06-16 15:18:08.538562,33.87
2026-06-16 15:18:08.538562,88.42
2026-06-16 15:18:08.553787,22.31
2026-06-16 15:18:08.556161,-21.58
2026-06-16 15:18:08.556161,-8.54
2026-06-16 15:18:08.572210,28.32
2026-06-16 15:18:08.572210,27.18
2026-06-16 15:18:08.588577,26.05
2026-06-16 15:18:08.588577,36.87
2026-06-16 15:18:08.605486,33.7
2026-06-16 15:18:08.605486,33.53
2026-06-16 15:18:08.621894,30.38
2026-06-16 15:18:08.628261,25.25
2026-06-16 15:18:08.638466,25.12
2026-06-16 15:18:08.638466,59.82
2026-06-16 15:18:08.655598,81.41
2026-06-16 15:18:08.655598,54.14
2026-06-16 15:18:08.671216,39.94
2026-06-16 15:18:08.672191,118.35
2026-06-16 15:18:08.686854,167.5
2026-06-16 15:18:08.688659,93.04
2026-06-16 15:18:08.688659,-74.59
2026-06-16 15:18:08.705379,-131.93
2026-06-16 15:18:08.705379,-54.65
2026-06-16 15:18:08.722277,14.28
2026-06-16 15:18:08.728290,-31.56
2026-06-16 15:18:08.738428,-122.95
2026-06-16 15:18:08.738428,-176.06
2026-06-16 15:18:08.755914,-153.29
2026-06-16 15:18:08.755914,-83.87
2026-06-16 15:18:08.771936,-68.53
2026-06-16 15:18:08.771936,-120.92
2026-06-16 15:18:08.788855,-149.17
2026-06-16 15:18:08.788855,-81.76
2026-06-16 15:18:08.804606,-10.7
2026-06-16 15:18:08.818152,10.24
2026-06-16 15:18:08.840362,-2.74
2026-06-16 15:18:08.841818,23.14
2026-06-16 15:18:08.843828,65.81
2026-06-16 15:18:08.843828,36.63
2026-06-16 15:18:08.850988,-5.35
2026-06-16 15:18:08.860704,58.36
2026-06-16 15:18:08.860704,151.6
2026-06-16 15:18:08.871846,159.8
2026-06-16 15:18:08.871846,91.34
2026-06-16 15:18:08.888462,29.19
2026-06-16 15:18:08.888462,-13.74
2026-06-16 15:18:08.904859,-64.42
2026-06-16 15:18:08.904859,-78.02
2026-06-16 15:18:08.921876,-75.64
2026-06-16 15:18:08.928785,-73.28
2026-06-16 15:18:08.937109,-69.92
2026-06-16 15:18:08.938896,5.05
2026-06-16 15:18:08.938896,111.49
2026-06-16 15:18:08.955067,134.81
2026-06-16 15:18:08.955067,47.57
2026-06-16 15:18:08.971914,-11.37
2026-06-16 15:18:08.971914,31.47
2026-06-16 15:18:08.988854,79.07
2026-06-16 15:18:08.988854,1.07
2026-06-16 15:18:09.005204,-103.41
2026-06-16 15:18:09.014520,-135.73
2026-06-16 15:18:09.022209,-113.16
2026-06-16 15:18:09.028802,-78.76
2026-06-16 15:18:09.038743,-116.18
2026-06-16 15:18:09.038743,-154.4
2026-06-16 15:18:09.054543,-120.8
2026-06-16 15:18:09.055319,3.19
2026-06-16 15:18:09.070241,85.76
2026-06-16 15:18:09.072621,56.47
2026-06-16 15:18:09.072621,4.45
2026-06-16 15:18:09.088489,-5.52
2026-06-16 15:18:09.088489,44.25
2026-06-16 15:18:09.105404,102.74
2026-06-16 15:18:09.105404,76.35
2026-06-16 15:18:09.122108,20.25
2026-06-16 15:18:09.129037,-44.52
2026-06-16 15:18:09.138854,-110.97
2026-06-16 15:18:09.138854,-116.38
2026-06-16 15:18:09.155312,-95.9
2026-06-16 15:18:09.155312,-82.48
2026-06-16 15:18:09.171412,-81.08
2026-06-16 15:18:09.172425,-44.85
2026-06-16 15:18:09.186984,2.14
2026-06-16 15:18:09.189079,26.01
2026-06-16 15:18:09.189079,-30.84
2026-06-16 15:18:09.205139,-94.36
2026-06-16 15:18:09.205139,-81.95
2026-06-16 15:18:09.221743,-16.87
2026-06-16 15:18:09.229084,4.11
2026-06-16 15:18:09.240806,0.11
2026-06-16 15:18:09.249397,7.08
2026-06-16 15:18:09.255518,68.73
2026-06-16 15:18:09.255518,135.05
2026-06-16 15:18:09.271876,92.59
2026-06-16 15:18:09.271876,8.54
2026-06-16 15:18:09.288326,4.52
2026-06-16 15:18:09.288326,71.16
2026-06-16 15:18:09.304483,121.55
2026-06-16 15:18:09.306302,140.84
2026-06-16 15:18:09.320143,119.25
2026-06-16 15:18:09.322105,92.78
2026-06-16 15:18:09.331060,91.32
2026-06-16 15:18:09.338402,99.82
2026-06-16 15:18:09.351581,68.47
2026-06-16 15:18:09.358027,-9.48
2026-06-16 15:18:09.358027,-117.89
2026-06-16 15:18:09.371869,-162.07
2026-06-16 15:18:09.371869,-93.6
2026-06-16 15:18:09.388417,-30.45
2026-06-16 15:18:09.388417,-49.2
2026-06-16 15:18:09.405163,-128.55
2026-06-16 15:18:09.405163,-142.84
2026-06-16 15:18:09.421090,-65.51
2026-06-16 15:18:09.429119,48.25
2026-06-16 15:18:09.436699,59.95
2026-06-16 15:18:09.438458,-20.95
2026-06-16 15:18:09.438458,-70.59
2026-06-16 15:18:09.455172,-12.53
2026-06-16 15:18:09.455172,65.14
2026-06-16 15:18:09.471792,80.74
2026-06-16 15:18:09.471792,43.52
2026-06-16 15:18:09.488906,31.36
2026-06-16 15:18:09.488906,65.04
2026-06-16 15:18:09.505652,116.45
2026-06-16 15:18:09.505652,121.84
2026-06-16 15:18:09.521483,56.55
2026-06-16 15:18:09.529191,-25.32
2026-06-16 15:18:09.538417,-55.04
2026-06-16 15:18:09.538417,9.91
2026-06-16 15:18:09.554569,48.66
2026-06-16 15:18:09.555268,-46.1
2026-06-16 15:18:09.570095,-217.01
2026-06-16 15:18:09.571909,-280.6
2026-06-16 15:18:09.571909,-176.72
2026-06-16 15:18:09.589083,-44.49
2026-06-16 15:18:09.589083,-26.36
2026-06-16 15:18:09.605147,-93.89
2026-06-16 15:18:09.605147,-142.17
2026-06-16 15:18:09.622195,-127.53
2026-06-16 15:18:09.629445,-65.21
2026-06-16 15:18:09.638485,-31.05
2026-06-16 15:18:09.638485,-31.89
2026-06-16 15:18:09.655417,17.03
2026-06-16 15:18:09.655417,121.42
2026-06-16 15:18:09.671211,126.78
2026-06-16 15:18:09.671961,-17.14
2026-06-16 15:18:09.686620,-194.16
2026-06-16 15:18:09.688231,-217.07
2026-06-16 15:18:09.688231,-72.7
2026-06-16 15:18:09.705175,102.78
2026-06-16 15:18:09.705175,128.14
2026-06-16 15:18:09.721815,43.92
2026-06-16 15:18:09.729451,-44.86
2026-06-16 15:18:09.738401,-124.24
2026-06-16 15:18:09.738401,-140.53
2026-06-16 15:18:09.755217,-112.96
2026-06-16 15:18:09.755217,-114.39
2026-06-16 15:18:09.772092,-142.67
2026-06-16 15:18:09.778302,-106.14
2026-06-16 15:18:09.788687,-8.1
2026-06-16 15:18:09.788687,71.54
2026-06-16 15:18:09.804339,24.42
2026-06-16 15:18:09.805156,-70.23
2026-06-16 15:18:09.820026,-91.76
2026-06-16 15:18:09.821629,-27.63
2026-06-16 15:18:09.829561,-9.58
2026-06-16 15:18:09.838375,-54.3
2026-06-16 15:18:09.838375,-57.02
2026-06-16 15:18:09.858714,56.7
2026-06-16 15:18:09.859284,166.86
2026-06-16 15:18:09.872585,122.24
2026-06-16 15:18:09.878842,-13.69
2026-06-16 15:18:09.888510,-75.31
2026-06-16 15:18:09.888510,10.64
2026-06-16 15:18:09.905177,153.87
2026-06-16 15:18:09.905177,208.82
2026-06-16 15:18:09.921362,120.21
2026-06-16 15:18:09.921362,21.11
2026-06-16 15:18:09.936576,-24.77
2026-06-16 15:18:09.938635,-25.64
2026-06-16 15:18:09.953203,-34.47
2026-06-16 15:18:09.955216,-18.38
2026-06-16 15:18:09.955216,30.47
2026-06-16 15:18:09.971641,61.16
2026-06-16 15:18:09.971641,5.14
2026-06-16 15:18:09.988517,-90.41
2026-06-16 15:18:09.988517,-86.97
2026-06-16 15:18:10.004689,1.02
2026-06-16 15:18:10.004689,54.75
2026-06-16 15:18:10.021587,57.46
2026-06-16 15:18:10.029969,-72.18
2026-06-16 15:18:10.038153,-427.03
2026-06-16 15:18:10.038153,-725.39
2026-06-16 15:18:10.054320,-671.01
2026-06-16 15:18:10.055240,-258.71
2026-06-16 15:18:10.069986,184.36
2026-06-16 15:18:10.071997,410.3
2026-06-16 15:18:10.071997,444.07
2026-06-16 15:18:10.088466,481.65
2026-06-16 15:18:10.088466,563.81
2026-06-16 15:18:10.104713,548.06
2026-06-16 15:18:10.104713,478.65
2026-06-16 15:18:10.124238,462.33
2026-06-16 15:18:10.130040,459.02
2026-06-16 15:18:10.137947,469.66
2026-06-16 15:18:10.137947,494.18
2026-06-16 15:18:10.154650,450.91
2026-06-16 15:18:10.154650,319.31
2026-06-16 15:18:10.171551,156.52
2026-06-16 15:18:10.171551,86.09
2026-06-16 15:18:10.186410,42.88
2026-06-16 15:18:10.188018,22.76
2026-06-16 15:18:10.203059,-66.9
2026-06-16 15:18:10.205002,-234.72
2026-06-16 15:18:10.205002,-381.8
2026-06-16 15:18:10.221626,-439.6
2026-06-16 15:18:10.230467,-369.74
2026-06-16 15:18:10.238543,-181.82
2026-06-16 15:18:10.238543,-9.77
2026-06-16 15:18:10.254934,22.11
2026-06-16 15:18:10.254934,-41.68
2026-06-16 15:18:10.271457,-71.32
2026-06-16 15:18:10.271457,-58.03
2026-06-16 15:18:10.288015,-145.3
2026-06-16 15:18:10.288015,-277.9
2026-06-16 15:18:10.304213,-395.91
2026-06-16 15:18:10.305178,-457.61
2026-06-16 15:18:10.319884,-440.4
2026-06-16 15:18:10.326777,-311.83
2026-06-16 15:18:10.334815,-118.24
2026-06-16 15:18:10.337885,-3.22
2026-06-16 15:18:10.337885,-55.94
2026-06-16 15:18:10.354856,-128.29
2026-06-16 15:18:10.354856,-128.65
2026-06-16 15:18:10.371665,-94.18
2026-06-16 15:18:10.379805,-103.65
2026-06-16 15:18:10.387957,-141.94
2026-06-16 15:18:10.398083,-98.45
2026-06-16 15:18:10.405002,-93.97
2026-06-16 15:18:10.405002,-157.18
2026-06-16 15:18:10.421552,-232.02
2026-06-16 15:18:10.421552,-250.76
2026-06-16 15:18:10.436444,-238.56
2026-06-16 15:18:10.438245,-248.31
2026-06-16 15:18:10.453045,-273.93
2026-06-16 15:18:10.454819,-247.69
2026-06-16 15:18:10.454819,-193.72
2026-06-16 15:18:10.471595,-143.0
2026-06-16 15:18:10.471595,-130.34
2026-06-16 15:18:10.488955,-170.49
2026-06-16 15:18:10.488955,-223.36
2026-06-16 15:18:10.504894,-224.24
2026-06-16 15:18:10.504894,-188.29
2026-06-16 15:18:10.521752,-165.46
2026-06-16 15:18:10.521752,-149.71
2026-06-16 15:18:10.537971,-142.99
2026-06-16 15:18:10.537971,-128.34
2026-06-16 15:18:10.554200,-132.68
2026-06-16 15:18:10.555195,-129.03
2026-06-16 15:18:10.569742,-95.55
2026-06-16 15:18:10.571428,9.4
2026-06-16 15:18:10.571428,85.97
2026-06-16 15:18:10.588472,74.6
2026-06-16 15:18:10.588472,-12.34
2026-06-16 15:18:10.605010,-68.99
2026-06-16 15:18:10.605010,30.85
2026-06-16 15:18:10.621449,185.92
2026-06-16 15:18:10.631317,188.97
2026-06-16 15:18:10.638394,36.78
2026-06-16 15:18:10.638394,-65.89
2026-06-16 15:18:10.654886,-7.85
2026-06-16 15:18:10.654886,85.72
2026-06-16 15:18:10.671528,68.38
2026-06-16 15:18:10.671528,5.35
2026-06-16 15:18:10.687347,15.27
2026-06-16 15:18:10.688345,101.76
2026-06-16 15:18:10.703168,151.0
2026-06-16 15:18:10.705596,178.11
2026-06-16 15:18:10.705596,200.1
2026-06-16 15:18:10.721965,220.0
2026-06-16 15:18:10.731748,243.77
2026-06-16 15:18:10.738322,249.52
2026-06-16 15:18:10.738322,218.42
2026-06-16 15:18:10.755028,179.52
2026-06-16 15:18:10.755028,174.64
2026-06-16 15:18:10.771282,213.57
2026-06-16 15:18:10.771282,281.16
2026-06-16 15:18:10.788838,306.62
2026-06-16 15:18:10.788838,255.33
2026-06-16 15:18:10.804109,187.39
2026-06-16 15:18:10.804781,171.53
2026-06-16 15:18:10.819882,199.53
2026-06-16 15:18:10.821701,266.19
2026-06-16 15:18:10.831815,296.7
2026-06-16 15:18:10.838208,281.28
2026-06-16 15:18:10.850500,252.02
2026-06-16 15:18:10.854416,222.9
2026-06-16 15:18:10.854416,200.89
2026-06-16 15:18:10.871537,233.71
2026-06-16 15:18:10.871537,281.3
2026-06-16 15:18:10.887952,264.97
2026-06-16 15:18:10.887952,201.95
2026-06-16 15:18:10.904850,167.11
2026-06-16 15:18:10.911824,166.28
2026-06-16 15:18:10.921535,184.35
2026-06-16 15:18:10.921535,206.32
2026-06-16 15:18:10.937226,204.29
2026-06-16 15:18:10.938262,186.35
2026-06-16 15:18:10.953025,161.54
2026-06-16 15:18:10.959298,162.72
2026-06-16 15:18:10.961310,220.61
2026-06-16 15:18:10.971634,253.34
2026-06-16 15:18:10.971634,196.35
2026-06-16 15:18:10.988505,146.62
2026-06-16 15:18:10.988505,198.62
2026-06-16 15:18:11.005066,260.31
2026-06-16 15:18:11.005066,199.31
2026-06-16 15:18:11.021406,32.15
