PC_Timestamp,ECG
2026-06-16 15:13:22.154013,-736.56
2026-06-16 15:13:22.175438,-629.4
2026-06-16 15:13:22.175438,-570.53
2026-06-16 15:13:22.189488,-597.53
2026-06-16 15:13:22.189488,-659.22
2026-06-16 15:13:22.205933,-657.91
2026-06-16 15:13:22.205933,-584.97
2026-06-16 15:13:22.221930,-494.49
2026-06-16 15:13:22.222913,-464.15
2026-06-16 15:13:22.237585,-452.88
2026-06-16 15:13:22.240025,-407.83
2026-06-16 15:13:22.240025,-343.11
2026-06-16 15:13:22.256756,-298.6
2026-06-16 15:13:22.256756,-246.37
2026-06-16 15:13:22.272309,-160.56
2026-06-16 15:13:22.272309,-93.09
2026-06-16 15:13:22.292005,-120.49
2026-06-16 15:13:22.292005,-247.24
2026-06-16 15:13:22.306423,-351.48
2026-06-16 15:13:22.311634,-351.71
2026-06-16 15:13:22.323149,-310.15
2026-06-16 15:13:22.323149,-330.49
2026-06-16 15:13:22.339032,-377.59
2026-06-16 15:13:22.344622,-387.65
2026-06-16 15:13:22.354644,-326.01
2026-06-16 15:13:22.357413,-240.8
2026-06-16 15:13:22.370585,-278.4
2026-06-16 15:13:22.376584,-487.95
2026-06-16 15:13:22.376584,-687.49
2026-06-16 15:13:22.389940,-771.61
2026-06-16 15:13:22.389940,-740.89
2026-06-16 15:13:22.406241,-753.11
2026-06-16 15:13:22.406241,-876.7
2026-06-16 15:13:22.423587,-998.68
2026-06-16 15:13:22.423587,-1081.25
2026-06-16 15:13:22.441462,-1167.38
2026-06-16 15:13:22.442162,-1255.08
2026-06-16 15:13:22.456614,-1280.64
2026-06-16 15:13:22.456614,-1296.13
2026-06-16 15:13:22.471686,-1323.48
2026-06-16 15:13:22.477388,-1293.97
2026-06-16 15:13:22.487438,-1211.88
2026-06-16 15:13:22.491998,-1176.97
2026-06-16 15:13:22.504135,-1246.71
2026-06-16 15:13:22.506512,-1301.17
2026-06-16 15:13:22.506512,-1141.43
2026-06-16 15:13:22.523431,-891.95
2026-06-16 15:13:22.523431,-758.14
2026-06-16 15:13:22.539669,-753.35
2026-06-16 15:13:22.539669,-733.67
2026-06-16 15:13:22.556822,-630.5
2026-06-16 15:13:22.561956,-426.36
2026-06-16 15:13:22.573508,-131.69
2026-06-16 15:13:22.577689,230.15
2026-06-16 15:13:22.588930,567.3
2026-06-16 15:13:22.594740,784.36
2026-06-16 15:13:22.605140,951.58
2026-06-16 15:13:22.606865,1177.66
2026-06-16 15:13:22.621119,1621.51
2026-06-16 15:13:22.623664,2185.53
2026-06-16 15:13:22.623664,2701.95
2026-06-16 15:13:22.640206,2958.08
2026-06-16 15:13:22.640206,3154.23
2026-06-16 15:13:22.657083,3600.14
2026-06-16 15:13:22.657083,4258.74
2026-06-16 15:13:22.673565,4928.97
2026-06-16 15:13:22.673565,5453.57
2026-06-16 15:13:22.690236,6043.2
2026-06-16 15:13:22.690236,6833.86
2026-06-16 15:13:22.706790,7445.45
2026-06-16 15:13:22.706790,7501.75
2026-06-16 15:13:22.722294,7395.58
2026-06-16 15:13:22.723671,7601.39
2026-06-16 15:13:22.737782,7990.23
2026-06-16 15:13:22.740141,8128.39
2026-06-16 15:13:22.740141,8173.32
2026-06-16 15:13:22.760631,8365.28
2026-06-16 15:13:22.768120,8268.73
2026-06-16 15:13:22.772333,7854.26
2026-06-16 15:13:22.772333,7530.42
2026-06-16 15:13:22.789940,7322.62
2026-06-16 15:13:22.789940,7194.47
2026-06-16 15:13:22.805728,7055.02
2026-06-16 15:13:22.805728,7029.69
2026-06-16 15:13:22.823763,6962.7
2026-06-16 15:13:22.823763,6380.64
2026-06-16 15:13:22.839056,5496.02
2026-06-16 15:13:22.839056,4985.97
2026-06-16 15:13:22.855008,4995.86
2026-06-16 15:13:22.856066,4628.6
2026-06-16 15:13:22.870578,3536.83
2026-06-16 15:13:22.872592,2460.46
2026-06-16 15:13:22.872592,1911.86
2026-06-16 15:13:22.889260,1765.98
2026-06-16 15:13:22.889260,1501.44
2026-06-16 15:13:22.906278,656.14
2026-06-16 15:13:22.906278,-347.12
2026-06-16 15:13:22.924047,-973.22
2026-06-16 15:13:22.924047,-1093.73
2026-06-16 15:13:22.940362,-1140.99
2026-06-16 15:13:22.941995,-1628.81
2026-06-16 15:13:22.955898,-2330.1
2026-06-16 15:13:22.955898,-2825.9
2026-06-16 15:13:22.972104,-3041.62
2026-06-16 15:13:22.977194,-3202.52
2026-06-16 15:13:22.987336,-3528.79
2026-06-16 15:13:22.992707,-4032.53
2026-06-16 15:13:22.998988,-4371.56
2026-06-16 15:13:23.006442,-4399.45
2026-06-16 15:13:23.006442,-4408.3
2026-06-16 15:13:23.024109,-4630.03
2026-06-16 15:13:23.024109,-4873.54
2026-06-16 15:13:23.039278,-4848.18
2026-06-16 15:13:23.039278,-4618.97
2026-06-16 15:13:23.055548,-4471.5
2026-06-16 15:13:23.055548,-4568.54
2026-06-16 15:13:23.073311,-4617.34
2026-06-16 15:13:23.073311,-4332.57
2026-06-16 15:13:23.088766,-3927.83
2026-06-16 15:13:23.089622,-3664.41
2026-06-16 15:13:23.104433,-3454.06
2026-06-16 15:13:23.106914,-3155.2
2026-06-16 15:13:23.121105,-2845.9
2026-06-16 15:13:23.125257,-2692.37
2026-06-16 15:13:23.125257,-2543.59
2026-06-16 15:13:23.139111,-2172.67
2026-06-16 15:13:23.145793,-1629.48
2026-06-16 15:13:23.155949,-1287.02
2026-06-16 15:13:23.166354,-1186.06
2026-06-16 15:13:23.173537,-983.12
2026-06-16 15:13:23.180563,-551.35
2026-06-16 15:13:23.189189,-103.82
2026-06-16 15:13:23.189189,136.49
2026-06-16 15:13:23.205779,262.17
2026-06-16 15:13:23.207497,447.92
2026-06-16 15:13:23.222082,755.13
2026-06-16 15:13:23.224088,1042.89
2026-06-16 15:13:23.237658,1191.9
2026-06-16 15:13:23.239671,1256.58
2026-06-16 15:13:23.254059,1425.42
2026-06-16 15:13:23.256464,1630.23
2026-06-16 15:13:23.256464,1616.11
2026-06-16 15:13:23.272838,1407.04
2026-06-16 15:13:23.272838,1357.22
2026-06-16 15:13:23.289299,1597.19
2026-06-16 15:13:23.289299,1775.27
2026-06-16 15:13:23.306155,1607.19
2026-06-16 15:13:23.306155,1456.87
2026-06-16 15:13:23.322837,1543.12
2026-06-16 15:13:23.324473,1691.62
2026-06-16 15:13:23.338660,1862.26
2026-06-16 15:13:23.339556,2051.95
2026-06-16 15:13:23.354345,2220.79
2026-06-16 15:13:23.356971,2167.89
2026-06-16 15:13:23.371245,2008.8
2026-06-16 15:13:23.374123,1997.76
2026-06-16 15:13:23.374123,2027.57
2026-06-16 15:13:23.390161,1785.6
2026-06-16 15:13:23.390161,1475.19
2026-06-16 15:13:23.406967,1533.48
2026-06-16 15:13:23.406967,1844.21
2026-06-16 15:13:23.424521,1960.36
2026-06-16 15:13:23.424521,1976.43
2026-06-16 15:13:23.440024,2030.23
2026-06-16 15:13:23.440024,1899.68
2026-06-16 15:13:23.456351,1514.07
2026-06-16 15:13:23.457349,1190.09
2026-06-16 15:13:23.471902,1447.82
2026-06-16 15:13:23.478090,2106.23
2026-06-16 15:13:23.487729,2218.09
2026-06-16 15:13:23.490421,1837.85
2026-06-16 15:13:23.503898,2003.78
2026-06-16 15:13:23.510408,2401.71
2026-06-16 15:13:23.513960,2529.0
2026-06-16 15:13:23.524669,2480.54
2026-06-16 15:13:23.524669,2879.07
2026-06-16 15:13:23.538899,3652.72
2026-06-16 15:13:23.538899,4003.6
2026-06-16 15:13:23.556140,3943.78
2026-06-16 15:13:23.556140,3571.83
2026-06-16 15:13:23.573199,3029.61
2026-06-16 15:13:23.573199,2117.96
2026-06-16 15:13:23.588809,1082.52
2026-06-16 15:13:23.592333,621.4
2026-06-16 15:13:23.605557,328.75
2026-06-16 15:13:23.607811,134.08
2026-06-16 15:13:23.621064,298.58
2026-06-16 15:13:23.625085,292.11
2026-06-16 15:13:23.625085,-191.93
2026-06-16 15:13:23.639172,-772.05
2026-06-16 15:13:23.639172,-189.1
2026-06-16 15:13:23.655666,908.34
2026-06-16 15:13:23.655666,1441.1
2026-06-16 15:13:23.673809,1840.85
2026-06-16 15:13:23.673809,3079.37
2026-06-16 15:13:23.689498,5370.38
2026-06-16 15:13:23.689498,6730.56
2026-06-16 15:13:23.706342,6718.8
2026-06-16 15:13:23.706342,6844.41
2026-06-16 15:13:23.721897,7564.39
2026-06-16 15:13:23.725541,7921.59
2026-06-16 15:13:23.737740,7122.79
2026-06-16 15:13:23.740838,6158.84
2026-06-16 15:13:23.753876,5735.03
2026-06-16 15:13:23.756653,5448.65
2026-06-16 15:13:23.756653,5182.6
2026-06-16 15:13:23.772390,4732.82
2026-06-16 15:13:23.772390,4237.52
2026-06-16 15:13:23.790036,3429.29
2026-06-16 15:13:23.790036,2641.02
2026-06-16 15:13:23.807581,2724.33
2026-06-16 15:13:23.815456,3210.2
2026-06-16 15:13:23.822634,2960.32
2026-06-16 15:13:23.825709,1923.66
2026-06-16 15:13:23.839001,1149.88
2026-06-16 15:13:23.839001,1103.33
2026-06-16 15:13:23.854773,1208.26
2026-06-16 15:13:23.856086,872.88
2026-06-16 15:13:23.870912,637.67
2026-06-16 15:13:23.873551,551.9
2026-06-16 15:13:23.873551,291.43
2026-06-16 15:13:23.889138,-269.21
2026-06-16 15:13:23.889138,-817.11
2026-06-16 15:13:23.905708,-881.68
2026-06-16 15:13:23.905708,-937.96
2026-06-16 15:13:23.923106,-1342.22
2026-06-16 15:13:23.925754,-1716.59
2026-06-16 15:13:23.939853,-1813.48
2026-06-16 15:13:23.939853,-1934.76
2026-06-16 15:13:23.956196,-2416.61
2026-06-16 15:13:23.959473,-2587.61
2026-06-16 15:13:23.971756,-2064.24
2026-06-16 15:13:23.972749,-1733.53
2026-06-16 15:13:23.987497,-2078.08
2026-06-16 15:13:23.989980,-2743.3
2026-06-16 15:13:24.003899,-2710.68
2026-06-16 15:13:24.005917,-2057.34
2026-06-16 15:13:24.005917,-1903.77
2026-06-16 15:13:24.025891,-2586.77
2026-06-16 15:13:24.032157,-3261.38
2026-06-16 15:13:24.038948,-3005.28
2026-06-16 15:13:24.038948,-2276.84
2026-06-16 15:13:24.057881,-2200.78
2026-06-16 15:13:24.063901,-2812.65
2026-06-16 15:13:24.071767,-3104.05
2026-06-16 15:13:24.071767,-2583.07
2026-06-16 15:13:24.089157,-2104.49
2026-06-16 15:13:24.089157,-2363.62
2026-06-16 15:13:24.104093,-2632.39
2026-06-16 15:13:24.106489,-2297.84
2026-06-16 15:13:24.120433,-1715.22
2026-06-16 15:13:24.126243,-1621.08
2026-06-16 15:13:24.126243,-1807.99
2026-06-16 15:13:24.139632,-1929.3
2026-06-16 15:13:24.139632,-1977.36
2026-06-16 15:13:24.155586,-2077.92
2026-06-16 15:13:24.155586,-2040.66
2026-06-16 15:13:24.173552,-1579.72
2026-06-16 15:13:24.173552,-1443.47
2026-06-16 15:13:24.189825,-1604.41
2026-06-16 15:13:24.189825,-1559.57
2026-06-16 15:13:24.206124,-1498.04
2026-06-16 15:13:24.212222,-1444.78
2026-06-16 15:13:24.221713,-1804.71
2026-06-16 15:13:24.226650,-2594.68
2026-06-16 15:13:24.237550,-3465.26
2026-06-16 15:13:24.240407,-4126.53
2026-06-16 15:13:24.253758,-4464.09
2026-06-16 15:13:24.259516,-5000.96
2026-06-16 15:13:24.259516,-5725.19
2026-06-16 15:13:24.271625,-6437.84
2026-06-16 15:13:24.271625,-6408.64
2026-06-16 15:13:24.289316,-5543.78
2026-06-16 15:13:24.289316,-5093.19
2026-06-16 15:13:24.306747,-5354.28
2026-06-16 15:13:24.306747,-5762.32
2026-06-16 15:13:24.322917,-5902.66
2026-06-16 15:13:24.328283,-5761.71
2026-06-16 15:13:24.339367,-5617.48
2026-06-16 15:13:24.339367,-5641.13
2026-06-16 15:13:24.354828,-5753.22
2026-06-16 15:13:24.356270,-5878.68
2026-06-16 15:13:24.370830,-5864.21
2026-06-16 15:13:24.373525,-5697.58
2026-06-16 15:13:24.373525,-5510.89
2026-06-16 15:13:24.389740,-5475.37
2026-06-16 15:13:24.389740,-5536.55
2026-06-16 15:13:24.405888,-5533.74
2026-06-16 15:13:24.405888,-5373.74
2026-06-16 15:13:24.422912,-5042.4
2026-06-16 15:13:24.428899,-4780.38
2026-06-16 15:13:24.439477,-4769.41
2026-06-16 15:13:24.439477,-4795.32
2026-06-16 15:13:24.456132,-4513.63
2026-06-16 15:13:24.456132,-3943.82
2026-06-16 15:13:24.471855,-3499.23
2026-06-16 15:13:24.473668,-3439.95
2026-06-16 15:13:24.487455,-3499.36
2026-06-16 15:13:24.490144,-3276.89
2026-06-16 15:13:24.503888,-2965.99
2026-06-16 15:13:24.506905,-2970.07
2026-06-16 15:13:24.506905,-3046.75
2026-06-16 15:13:24.522936,-2833.52
2026-06-16 15:13:24.529244,-2313.89
2026-06-16 15:13:24.540347,-1888.4
2026-06-16 15:13:24.544740,-1775.48
2026-06-16 15:13:24.556069,-1754.66
2026-06-16 15:13:24.556069,-1525.0
2026-06-16 15:13:24.572348,-1092.51
2026-06-16 15:13:24.572348,-795.51
2026-06-16 15:13:24.589329,-893.02
2026-06-16 15:13:24.589760,-1196.01
2026-06-16 15:13:24.604844,-939.29
2026-06-16 15:13:24.606195,-130.63
2026-06-16 15:13:24.620872,399.36
2026-06-16 15:13:24.623624,237.17
2026-06-16 15:13:24.636844,-145.1
2026-06-16 15:13:24.639691,26.76
2026-06-16 15:13:24.639691,734.07
2026-06-16 15:13:24.655341,1175.17
2026-06-16 15:13:24.655341,1243.92
2026-06-16 15:13:24.672473,1576.0
2026-06-16 15:13:24.672473,2097.46
2026-06-16 15:13:24.689694,2282.98
2026-06-16 15:13:24.689694,2373.06
2026-06-16 15:13:24.706381,2514.42
2026-06-16 15:13:24.706381,2439.17
2026-06-16 15:13:24.721763,2140.41
2026-06-16 15:13:24.730079,1844.14
2026-06-16 15:13:24.737283,1805.07
2026-06-16 15:13:24.739933,1971.17
2026-06-16 15:13:24.753883,2076.73
2026-06-16 15:13:24.756640,2082.27
2026-06-16 15:13:24.756640,2450.95
2026-06-16 15:13:24.772841,2667.55
2026-06-16 15:13:24.772841,2456.2
2026-06-16 15:13:24.789090,2458.85
2026-06-16 15:13:24.789090,2733.11
2026-06-16 15:13:24.805783,2975.16
2026-06-16 15:13:24.805783,2513.53
2026-06-16 15:13:24.822929,1623.38
2026-06-16 15:13:24.830407,844.13
2026-06-16 15:13:24.839267,160.33
2026-06-16 15:13:24.839267,-299.17
2026-06-16 15:13:24.854874,-857.86
2026-06-16 15:13:24.857147,-1443.6
2026-06-16 15:13:24.870183,-2144.83
2026-06-16 15:13:24.872218,-2715.18
2026-06-16 15:13:24.886936,-2483.7
2026-06-16 15:13:24.888949,-2063.33
2026-06-16 15:13:24.888949,-1871.93
2026-06-16 15:13:24.905952,-2056.59
2026-06-16 15:13:24.905952,-1859.25
2026-06-16 15:13:24.922816,-1327.58
2026-06-16 15:13:24.930660,-896.07
2026-06-16 15:13:24.939897,-529.41
2026-06-16 15:13:24.945091,-249.16
2026-06-16 15:13:24.956206,276.45
2026-06-16 15:13:24.956206,815.35
2026-06-16 15:13:24.971388,1663.0
2026-06-16 15:13:24.972997,2771.07
2026-06-16 15:13:24.987114,4103.45
2026-06-16 15:13:24.989759,5660.01
2026-06-16 15:13:25.004047,7420.72
2026-06-16 15:13:25.010805,9103.97
2026-06-16 15:13:25.018854,10425.58
2026-06-16 15:13:25.022629,11821.18
2026-06-16 15:13:25.030817,12492.4
2026-06-16 15:13:25.038508,11425.98
2026-06-16 15:13:25.038508,8257.49
2026-06-16 15:13:25.055428,4763.55
2026-06-16 15:13:25.065120,2650.23
2026-06-16 15:13:25.071899,1042.0
2026-06-16 15:13:25.073940,617.89
2026-06-16 15:13:25.089113,-512.53
2026-06-16 15:13:25.089113,-3673.07
2026-06-16 15:13:25.104685,-6733.24
2026-06-16 15:13:25.106179,-7189.11
2026-06-16 15:13:25.120545,-1866.73
2026-06-16 15:13:25.123038,5937.43
2026-06-16 15:13:25.136548,10438.97
2026-06-16 15:13:25.138965,9309.19
2026-06-16 15:13:25.138965,5970.19
2026-06-16 15:13:25.155523,5375.18
2026-06-16 15:13:25.155523,6445.79
2026-06-16 15:13:25.172678,7571.74
2026-06-16 15:13:25.172678,7083.15
2026-06-16 15:13:25.189255,5262.7
2026-06-16 15:13:25.189255,5073.21
2026-06-16 15:13:25.205395,5242.86
2026-06-16 15:13:25.205395,4463.43
2026-06-16 15:13:25.222114,3248.11
2026-06-16 15:13:25.228626,1993.1
2026-06-16 15:13:25.236825,1322.45
2026-06-16 15:13:25.238840,1089.97
2026-06-16 15:13:25.253232,1075.57
2026-06-16 15:13:25.255244,657.27
2026-06-16 15:13:25.255244,-227.59
2026-06-16 15:13:25.271953,-1055.29
2026-06-16 15:13:25.271953,-1576.37
2026-06-16 15:13:25.288219,-1662.01
2026-06-16 15:13:25.288219,-1635.79
2026-06-16 15:13:25.305070,-2154.97
2026-06-16 15:13:25.315176,-2589.95
2026-06-16 15:13:25.321670,-2692.42
2026-06-16 15:13:25.321670,-3078.95
2026-06-16 15:13:25.338705,-3091.41
2026-06-16 15:13:25.338705,-2539.65
2026-06-16 15:13:25.354319,-1905.08
2026-06-16 15:13:25.355341,-2039.83
2026-06-16 15:13:25.370094,-2977.86
2026-06-16 15:13:25.372113,-3723.15
2026-06-16 15:13:25.384587,-3651.8
2026-06-16 15:13:25.388484,-2547.0
2026-06-16 15:13:25.388484,-1510.41
2026-06-16 15:13:25.404592,-1281.97
2026-06-16 15:13:25.417183,-1460.63
2026-06-16 15:13:25.424871,-2054.31
2026-06-16 15:13:25.432469,-2454.97
2026-06-16 15:13:25.440620,-2583.99
2026-06-16 15:13:25.447975,-2913.35
2026-06-16 15:13:25.456103,-3400.26
2026-06-16 15:13:25.463730,-3984.24
2026-06-16 15:13:25.471503,-4345.4
2026-06-16 15:13:25.479634,-4538.6
2026-06-16 15:13:25.487141,-4708.93
2026-06-16 15:13:25.495011,-4922.2
2026-06-16 15:13:25.502826,-5223.95
2026-06-16 15:13:25.509075,-5461.5
2026-06-16 15:13:25.509075,-5497.88
2026-06-16 15:13:25.522648,-5371.88
2026-06-16 15:13:25.532564,-5192.79
2026-06-16 15:13:25.538991,-5151.9
2026-06-16 15:13:25.538991,-5224.64
2026-06-16 15:13:25.556233,-5082.11
2026-06-16 15:13:25.556233,-4779.09
2026-06-16 15:13:25.572631,-4729.32
2026-06-16 15:13:25.577361,-4898.71
2026-06-16 15:13:25.588801,-4869.24
2026-06-16 15:13:25.588801,-4519.53
2026-06-16 15:13:25.604351,-4194.45
2026-06-16 15:13:25.605303,-4249.1
2026-06-16 15:13:25.619822,-4507.45
2026-06-16 15:13:25.621740,-4560.53
2026-06-16 15:13:25.632901,-4423.3
2026-06-16 15:13:25.638126,-4374.32
2026-06-16 15:13:25.638126,-4361.4
2026-06-16 15:13:25.655103,-4234.13
2026-06-16 15:13:25.655103,-4063.71
2026-06-16 15:13:25.671989,-4050.35
2026-06-16 15:13:25.671989,-4143.53
2026-06-16 15:13:25.688873,-4000.43
2026-06-16 15:13:25.688873,-3599.34
2026-06-16 15:13:25.706109,-3419.16
2026-06-16 15:13:25.709329,-3605.04
2026-06-16 15:13:25.722320,-3647.71
2026-06-16 15:13:25.722832,-3262.32
2026-06-16 15:13:25.738079,-2851.99
2026-06-16 15:13:25.739780,-2815.84
2026-06-16 15:13:25.753909,-2959.96
2026-06-16 15:13:25.756924,-2855.62
2026-06-16 15:13:25.756924,-2551.79
2026-06-16 15:13:25.772433,-2406.7
2026-06-16 15:13:25.772433,-2429.49
2026-06-16 15:13:25.789053,-2459.13
2026-06-16 15:13:25.789053,-2411.02
2026-06-16 15:13:25.806179,-2311.4
2026-06-16 15:13:25.806179,-2286.91
2026-06-16 15:13:25.822772,-2417.76
2026-06-16 15:13:25.828106,-2587.76
2026-06-16 15:13:25.838885,-2567.85
2026-06-16 15:13:25.839794,-2385.86
2026-06-16 15:13:25.854577,-2316.22
2026-06-16 15:13:25.856362,-2452.9
2026-06-16 15:13:25.870172,-2565.01
2026-06-16 15:13:25.873193,-2450.69
2026-06-16 15:13:25.886735,-2305.11
2026-06-16 15:13:25.889751,-2328.41
2026-06-16 15:13:25.889751,-2357.56
2026-06-16 15:13:25.905186,-2265.18
2026-06-16 15:13:25.905186,-2052.86
2026-06-16 15:13:25.921607,-1916.23
2026-06-16 15:13:25.921607,-2027.05
2026-06-16 15:13:25.940382,-2326.36
2026-06-16 15:13:25.940382,-2489.85
2026-06-16 15:13:25.955346,-2275.41
2026-06-16 15:13:25.955346,-1892.9
2026-06-16 15:13:25.972139,-1659.56
2026-06-16 15:13:25.972485,-1675.14
2026-06-16 15:13:25.987869,-1702.59
2026-06-16 15:13:25.989212,-1533.88
2026-06-16 15:13:26.003693,-1298.35
2026-06-16 15:13:26.006567,-1151.57
2026-06-16 15:13:26.006567,-1007.5
2026-06-16 15:13:26.022482,-819.39
2026-06-16 15:13:26.033947,-723.75
2026-06-16 15:13:26.039504,-799.73
2026-06-16 15:13:26.039504,-912.15
2026-06-16 15:13:26.055545,-944.4
2026-06-16 15:13:26.055545,-822.27
2026-06-16 15:13:26.071384,-612.19
2026-06-16 15:13:26.071384,-503.66
2026-06-16 15:13:26.088938,-540.94
2026-06-16 15:13:26.094125,-651.67
2026-06-16 15:13:26.104063,-747.91
2026-06-16 15:13:26.104930,-744.17
2026-06-16 15:13:26.119623,-569.31
2026-06-16 15:13:26.121641,-336.62
2026-06-16 15:13:26.134001,-190.66
2026-06-16 15:13:26.138267,-166.82
2026-06-16 15:13:26.138267,-134.15
2026-06-16 15:13:26.155396,43.63
2026-06-16 15:13:26.155396,273.26
2026-06-16 15:13:26.175082,319.65
2026-06-16 15:13:26.175082,236.46
2026-06-16 15:13:26.188678,258.17
2026-06-16 15:13:26.188678,437.97
2026-06-16 15:13:26.206070,613.88
2026-06-16 15:13:26.206070,592.9
2026-06-16 15:13:26.222156,424.77
2026-06-16 15:13:26.222735,380.85
2026-06-16 15:13:26.237709,556.06
2026-06-16 15:13:26.239084,756.26
2026-06-16 15:13:26.253600,798.25
2026-06-16 15:13:26.256058,756.45
2026-06-16 15:13:26.256058,825.3
2026-06-16 15:13:26.271865,974.4
2026-06-16 15:13:26.271865,1040.18
2026-06-16 15:13:26.288801,1011.09
2026-06-16 15:13:26.288801,1026.93
2026-06-16 15:13:26.305701,1084.48
2026-06-16 15:13:26.305701,1104.93
2026-06-16 15:13:26.322919,1143.19
2026-06-16 15:13:26.327931,1208.12
2026-06-16 15:13:26.338669,1201.08
2026-06-16 15:13:26.338669,1051.8
2026-06-16 15:13:26.354459,970.92
2026-06-16 15:13:26.355501,1083.47
2026-06-16 15:13:26.370138,1189.49
2026-06-16 15:13:26.373112,1077.08
2026-06-16 15:13:26.386478,846.83
2026-06-16 15:13:26.388506,740.11
2026-06-16 15:13:26.388506,783.17
2026-06-16 15:13:26.405572,823.04
2026-06-16 15:13:26.405572,818.92
2026-06-16 15:13:26.421925,752.14
2026-06-16 15:13:26.421925,697.64
2026-06-16 15:13:26.438191,691.16
2026-06-16 15:13:26.438191,706.61
2026-06-16 15:13:26.455907,743.87
2026-06-16 15:13:26.461104,745.13
2026-06-16 15:13:26.471231,713.54
2026-06-16 15:13:26.472117,708.98
2026-06-16 15:13:26.487746,805.93
2026-06-16 15:13:26.489422,970.06
2026-06-16 15:13:26.503634,1107.49
2026-06-16 15:13:26.506648,1124.84
2026-06-16 15:13:26.519763,987.87
2026-06-16 15:13:26.522404,837.67
2026-06-16 15:13:26.522404,892.18
2026-06-16 15:13:26.538402,1053.89
2026-06-16 15:13:26.538402,1170.01
2026-06-16 15:13:26.555782,1168.14
2026-06-16 15:13:26.555782,1088.67
2026-06-16 15:13:26.572236,1042.43
2026-06-16 15:13:26.572236,1065.08
2026-06-16 15:13:26.588911,1113.48
2026-06-16 15:13:26.588911,1138.76
2026-06-16 15:13:26.604262,1107.19
2026-06-16 15:13:26.610910,1044.94
2026-06-16 15:13:26.619352,1092.45
2026-06-16 15:13:26.621369,1270.07
2026-06-16 15:13:26.636459,1386.11
2026-06-16 15:13:26.638470,1315.49
2026-06-16 15:13:26.638470,1202.45
2026-06-16 15:13:26.654842,1169.58
2026-06-16 15:13:26.654842,1189.6
2026-06-16 15:13:26.672529,1161.76
2026-06-16 15:13:26.672529,1086.3
2026-06-16 15:13:26.689353,1043.06
2026-06-16 15:13:26.689353,1031.87
2026-06-16 15:13:26.705817,999.85
2026-06-16 15:13:26.705817,977.94
2026-06-16 15:13:26.722285,1051.65
2026-06-16 15:13:26.722783,1172.76
2026-06-16 15:13:26.737590,1220.62
2026-06-16 15:13:26.739508,1205.57
2026-06-16 15:13:26.752745,1224.41
2026-06-16 15:13:26.755696,1347.64
2026-06-16 15:13:26.755696,1478.21
2026-06-16 15:13:26.771452,1417.09
2026-06-16 15:13:26.771452,1172.2
2026-06-16 15:13:26.789106,946.44
2026-06-16 15:13:26.789106,901.91
2026-06-16 15:13:26.805593,1012.82
2026-06-16 15:13:26.805593,1142.08
2026-06-16 15:13:26.821775,1171.2
2026-06-16 15:13:26.821775,1120.57
2026-06-16 15:13:26.838825,1115.96
2026-06-16 15:13:26.838825,1154.16
2026-06-16 15:13:26.854408,1194.16
2026-06-16 15:13:26.856008,1195.15
2026-06-16 15:13:26.870943,1143.41
2026-06-16 15:13:26.872537,1062.07
2026-06-16 15:13:26.886896,1057.75
2026-06-16 15:13:26.889807,1116.15
2026-06-16 15:13:26.889807,1159.32
2026-06-16 15:13:26.905541,1109.74
2026-06-16 15:13:26.905541,1007.68
2026-06-16 15:13:26.922370,968.81
2026-06-16 15:13:26.922370,1011.73
2026-06-16 15:13:26.938581,1020.6
2026-06-16 15:13:26.938581,987.64
2026-06-16 15:13:26.955233,1008.57
2026-06-16 15:13:26.955233,1056.26
2026-06-16 15:13:26.971871,1079.83
2026-06-16 15:13:26.972576,1063.49
2026-06-16 15:13:26.987584,1038.27
2026-06-16 15:13:26.989183,1014.18
2026-06-16 15:13:27.003465,1024.03
2026-06-16 15:13:27.006377,1072.64
2026-06-16 15:13:27.019392,1107.08
2026-06-16 15:13:27.022148,1082.64
2026-06-16 15:13:27.022148,994.64
2026-06-16 15:13:27.038158,920.01
2026-06-16 15:13:27.038158,943.27
2026-06-16 15:13:27.054751,983.33
2026-06-16 15:13:27.054751,945.58
2026-06-16 15:13:27.070851,835.38
2026-06-16 15:13:27.070851,730.71
2026-06-16 15:13:27.087778,715.12
2026-06-16 15:13:27.087778,755.32
2026-06-16 15:13:27.104248,790.35
2026-06-16 15:13:27.105155,777.44
2026-06-16 15:13:27.120600,769.58
2026-06-16 15:13:27.125464,792.59
2026-06-16 15:13:27.135968,829.43
2026-06-16 15:13:27.138156,862.09
2026-06-16 15:13:27.138156,862.76
2026-06-16 15:13:27.154349,832.57
2026-06-16 15:13:27.154349,856.27
2026-06-16 15:13:27.171584,904.73
2026-06-16 15:13:27.171584,914.13
2026-06-16 15:13:27.188525,832.95
2026-06-16 15:13:27.188525,742.22
2026-06-16 15:13:27.204950,751.44
2026-06-16 15:13:27.204950,798.43
2026-06-16 15:13:27.221146,766.58
2026-06-16 15:13:27.221146,649.31
2026-06-16 15:13:27.236419,581.39
2026-06-16 15:13:27.238887,634.2
2026-06-16 15:13:27.253228,714.61
2026-06-16 15:13:27.256588,715.02
2026-06-16 15:13:27.269444,659.71
2026-06-16 15:13:27.271862,623.57
2026-06-16 15:13:27.271862,647.32
2026-06-16 15:13:27.288569,694.83
2026-06-16 15:13:27.288569,751.05
2026-06-16 15:13:27.305472,785.11
2026-06-16 15:13:27.305472,801.08
2026-06-16 15:13:27.321702,777.18
2026-06-16 15:13:27.321702,722.55
2026-06-16 15:13:27.338984,709.98
2026-06-16 15:13:27.338984,719.36
2026-06-16 15:13:27.354331,695.87
2026-06-16 15:13:27.355898,632.69
2026-06-16 15:13:27.369884,640.47
2026-06-16 15:13:27.372897,727.81
2026-06-16 15:13:27.386576,771.93
2026-06-16 15:13:27.389454,714.34
2026-06-16 15:13:27.389454,614.26
2026-06-16 15:13:27.405553,582.33
2026-06-16 15:13:27.405553,646.08
2026-06-16 15:13:27.421590,719.47
2026-06-16 15:13:27.421590,761.64
2026-06-16 15:13:27.438406,748.88
2026-06-16 15:13:27.438406,721.25
2026-06-16 15:13:27.455246,731.58
2026-06-16 15:13:27.455246,761.75
2026-06-16 15:13:27.471631,773.86
2026-06-16 15:13:27.471631,735.17
2026-06-16 15:13:27.487255,704.62
2026-06-16 15:13:27.488255,701.1
2026-06-16 15:13:27.502980,694.61
2026-06-16 15:13:27.505745,696.11
2026-06-16 15:13:27.519180,757.31
2026-06-16 15:13:27.521935,872.92
2026-06-16 15:13:27.521935,925.27
2026-06-16 15:13:27.538570,791.3
2026-06-16 15:13:27.538570,558.49
2026-06-16 15:13:27.555333,410.43
2026-06-16 15:13:27.555333,431.26
2026-06-16 15:13:27.571948,530.59
2026-06-16 15:13:27.571948,605.55
2026-06-16 15:13:27.588645,632.37
2026-06-16 15:13:27.592361,641.15
2026-06-16 15:13:27.604950,629.98
2026-06-16 15:13:27.605432,567.13
2026-06-16 15:13:27.619675,537.43
2026-06-16 15:13:27.622691,586.49
2026-06-16 15:13:27.636281,625.34
2026-06-16 15:13:27.639765,572.47
2026-06-16 15:13:27.648753,496.97
2026-06-16 15:13:27.654647,462.65
2026-06-16 15:13:27.654647,477.25
2026-06-16 15:13:27.671248,514.66
2026-06-16 15:13:27.671248,532.98
2026-06-16 15:13:27.688335,519.37
2026-06-16 15:13:27.688335,530.71
2026-06-16 15:13:27.705464,581.78
2026-06-16 15:13:27.705464,625.64
2026-06-16 15:13:27.721567,607.59
2026-06-16 15:13:27.722248,532.91
2026-06-16 15:13:27.737488,484.47
2026-06-16 15:13:27.739842,489.02
2026-06-16 15:13:27.752628,508.46
2026-06-16 15:13:27.754665,511.89
2026-06-16 15:13:27.754665,515.3
2026-06-16 15:13:27.771626,511.73
2026-06-16 15:13:27.771626,482.3
2026-06-16 15:13:27.787798,461.98
2026-06-16 15:13:27.787798,475.59
2026-06-16 15:13:27.804532,459.28
2026-06-16 15:13:27.804532,396.29
2026-06-16 15:13:27.821628,318.69
2026-06-16 15:13:27.826657,284.26
2026-06-16 15:13:27.838912,294.78
2026-06-16 15:13:27.838912,262.46
2026-06-16 15:13:27.854401,261.15
2026-06-16 15:13:27.854401,378.25
2026-06-16 15:13:27.870216,595.26
2026-06-16 15:13:27.872010,809.19
2026-06-16 15:13:27.886028,984.25
2026-06-16 15:13:27.888058,1159.42
2026-06-16 15:13:27.888058,1324.76
2026-06-16 15:13:27.904303,1372.86
2026-06-16 15:13:27.904303,1285.4
2026-06-16 15:13:27.921193,1174.5
2026-06-16 15:13:27.921193,1190.52
2026-06-16 15:13:27.939247,1222.38
2026-06-16 15:13:27.939247,1126.72
2026-06-16 15:13:27.954849,977.8
2026-06-16 15:13:27.954849,943.06
2026-06-16 15:13:27.971004,1033.87
2026-06-16 15:13:27.971004,1042.63
2026-06-16 15:13:27.986926,875.23
2026-06-16 15:13:27.987895,668.87
2026-06-16 15:13:28.019940,603.83
2026-06-16 15:13:28.026942,597.83
2026-06-16 15:13:28.030968,504.3
2026-06-16 15:13:28.032983,323.67
2026-06-16 15:13:28.032983,204.64
2026-06-16 15:13:28.049249,174.76
2026-06-16 15:13:28.049249,135.08
2026-06-16 15:13:28.053920,33.91
2026-06-16 15:13:28.053920,-66.75
2026-06-16 15:13:28.070981,-113.18
2026-06-16 15:13:28.070981,-131.52
2026-06-16 15:13:28.087292,-183.6
2026-06-16 15:13:28.087292,-266.26
2026-06-16 15:13:28.103810,-337.56
2026-06-16 15:13:28.103810,-374.68
2026-06-16 15:13:28.119966,-381.76
2026-06-16 15:13:28.120881,-388.81
2026-06-16 15:13:28.135738,-460.49
2026-06-16 15:13:28.139284,-650.23
2026-06-16 15:13:28.150831,-854.93
2026-06-16 15:13:28.159128,-1006.87
2026-06-16 15:13:28.163849,-1069.5
2026-06-16 15:13:28.171180,-1075.09
2026-06-16 15:13:28.171180,-1098.57
2026-06-16 15:13:28.188857,-1136.86
2026-06-16 15:13:28.188857,-1133.17
2026-06-16 15:13:28.204818,-1070.79
2026-06-16 15:13:28.204818,-967.92
2026-06-16 15:13:28.221903,-852.64
2026-06-16 15:13:28.226926,-763.8
2026-06-16 15:13:28.236915,-691.33
2026-06-16 15:13:28.239670,-616.23
2026-06-16 15:13:28.252536,-584.29
2026-06-16 15:13:28.255470,-601.27
2026-06-16 15:13:28.255470,-522.65
2026-06-16 15:13:28.271873,-398.64
2026-06-16 15:13:28.271873,-405.6
2026-06-16 15:13:28.287838,-597.6
2026-06-16 15:13:28.287838,-755.8
2026-06-16 15:13:28.305183,-683.37
2026-06-16 15:13:28.305183,-456.08
2026-06-16 15:13:28.322204,-312.51
2026-06-16 15:13:28.329612,-327.86
2026-06-16 15:13:28.337485,-341.14
2026-06-16 15:13:28.340034,-276.75
2026-06-16 15:13:28.354049,-221.64
2026-06-16 15:13:28.354049,-197.65
2026-06-16 15:13:28.369454,-182.73
2026-06-16 15:13:28.371860,-149.97
2026-06-16 15:13:28.386204,-97.49
2026-06-16 15:13:28.388252,-39.29
2026-06-16 15:13:28.388252,33.54
2026-06-16 15:13:28.405167,65.22
2026-06-16 15:13:28.405167,68.87
2026-06-16 15:13:28.421128,92.41
2026-06-16 15:13:28.421128,114.83
2026-06-16 15:13:28.440303,80.42
2026-06-16 15:13:28.440303,3.41
2026-06-16 15:13:28.455835,-18.5
2026-06-16 15:13:28.461014,46.27
2026-06-16 15:13:28.471422,143.55
2026-06-16 15:13:28.472401,201.53
2026-06-16 15:13:28.487063,223.41
2026-06-16 15:13:28.487737,253.14
2026-06-16 15:13:28.502689,287.69
2026-06-16 15:13:28.505029,293.22
2026-06-16 15:13:28.519068,291.75
2026-06-16 15:13:28.521087,256.46
2026-06-16 15:13:28.521087,219.36
2026-06-16 15:13:28.540572,213.29
2026-06-16 15:13:28.540572,228.14
2026-06-16 15:13:28.554370,207.1
2026-06-16 15:13:28.554370,132.44
2026-06-16 15:13:28.571959,77.05
2026-06-16 15:13:28.571959,89.6
2026-06-16 15:13:28.588117,134.92
2026-06-16 15:13:28.588117,141.21
2026-06-16 15:13:28.604781,113.64
2026-06-16 15:13:28.605450,113.07
2026-06-16 15:13:28.619768,162.26
2026-06-16 15:13:28.622782,207.22
2026-06-16 15:13:28.636331,243.0
2026-06-16 15:13:28.641042,245.76
2026-06-16 15:13:28.652483,184.83
2026-06-16 15:13:28.655514,121.22
2026-06-16 15:13:28.665100,140.52
2026-06-16 15:13:28.671401,218.42
2026-06-16 15:13:28.680557,295.93
2026-06-16 15:13:28.688310,302.41
2026-06-16 15:13:28.688310,278.02
2026-06-16 15:13:28.705296,284.59
2026-06-16 15:13:28.705296,307.04
2026-06-16 15:13:28.722065,305.51
2026-06-16 15:13:28.722065,281.09
2026-06-16 15:13:28.737147,308.54
2026-06-16 15:13:28.741061,351.78
2026-06-16 15:13:28.752881,381.86
2026-06-16 15:13:28.756231,381.94
2026-06-16 15:13:28.769294,343.21
2026-06-16 15:13:28.771852,298.71
2026-06-16 15:13:28.771852,302.19
2026-06-16 15:13:28.788366,330.53
2026-06-16 15:13:28.788366,368.68
2026-06-16 15:13:28.804596,390.72
2026-06-16 15:13:28.804596,377.82
2026-06-16 15:13:28.821924,331.15
2026-06-16 15:13:28.821924,309.6
2026-06-16 15:13:28.838155,326.96
2026-06-16 15:13:28.841239,333.28
2026-06-16 15:13:28.854851,319.67
2026-06-16 15:13:28.860246,281.26
2026-06-16 15:13:28.869405,257.96
2026-06-16 15:13:28.871621,256.67
2026-06-16 15:13:28.886308,272.31
2026-06-16 15:13:28.890154,272.94
2026-06-16 15:13:28.902254,277.54
2026-06-16 15:13:28.905038,294.06
2026-06-16 15:13:28.905038,322.44
2026-06-16 15:13:28.921527,340.73
2026-06-16 15:13:28.921527,336.04
2026-06-16 15:13:28.938207,326.4
2026-06-16 15:13:28.941238,349.64
2026-06-16 15:13:28.955615,357.85
2026-06-16 15:13:28.955615,293.37
2026-06-16 15:13:28.971575,236.18
2026-06-16 15:13:28.977949,244.95
2026-06-16 15:13:28.987239,265.62
2026-06-16 15:13:28.988784,206.58
2026-06-16 15:13:29.002384,125.95
2026-06-16 15:13:29.005115,112.38
2026-06-16 15:13:29.019310,173.51
2026-06-16 15:13:29.022044,198.51
2026-06-16 15:13:29.022044,183.59
2026-06-16 15:13:29.041403,210.53
2026-06-16 15:13:29.041403,303.01
2026-06-16 15:13:29.054232,325.38
2026-06-16 15:13:29.054232,262.06
2026-06-16 15:13:29.071646,201.05
2026-06-16 15:13:29.071646,222.93
2026-06-16 15:13:29.086892,250.67
2026-06-16 15:13:29.086892,197.68
2026-06-16 15:13:29.104062,124.05
2026-06-16 15:13:29.104062,106.52
2026-06-16 15:13:29.120356,136.83
2026-06-16 15:13:29.124102,126.2
2026-06-16 15:13:29.135932,102.68
2026-06-16 15:13:29.141734,117.09
2026-06-16 15:13:29.152308,140.39
2026-06-16 15:13:29.154693,126.75
2026-06-16 15:13:29.154693,133.08
2026-06-16 15:13:29.171299,195.1
2026-06-16 15:13:29.181300,264.77
2026-06-16 15:13:29.187557,299.26
2026-06-16 15:13:29.193858,275.88
2026-06-16 15:13:29.204558,175.0
2026-06-16 15:13:29.204558,43.78
2026-06-16 15:13:29.221790,-38.03
2026-06-16 15:13:29.221790,-6.99
2026-06-16 15:13:29.236812,119.41
2026-06-16 15:13:29.241882,199.4
2026-06-16 15:13:29.252227,186.47
2026-06-16 15:13:29.254252,159.66
2026-06-16 15:13:29.269015,133.99
2026-06-16 15:13:29.271620,84.57
2026-06-16 15:13:29.271620,57.28
2026-06-16 15:13:29.287372,62.96
2026-06-16 15:13:29.287372,83.54
2026-06-16 15:13:29.304781,100.04
2026-06-16 15:13:29.304781,98.54
2026-06-16 15:13:29.321115,77.16
2026-06-16 15:13:29.321115,65.83
2026-06-16 15:13:29.338679,71.47
2026-06-16 15:13:29.344221,125.83
2026-06-16 15:13:29.354258,223.71
2026-06-16 15:13:29.354258,255.43
2026-06-16 15:13:29.369840,189.47
2026-06-16 15:13:29.370738,132.81
2026-06-16 15:13:29.385402,169.95
2026-06-16 15:13:29.390997,234.77
2026-06-16 15:13:29.390997,257.48
2026-06-16 15:13:29.406572,221.37
2026-06-16 15:13:29.406572,174.49
2026-06-16 15:13:29.420678,153.72
2026-06-16 15:13:29.420678,174.84
2026-06-16 15:13:29.437380,190.88
2026-06-16 15:13:29.444344,162.07
2026-06-16 15:13:29.454760,108.52
2026-06-16 15:13:29.454760,93.05
2026-06-16 15:13:29.470178,124.43
2026-06-16 15:13:29.470178,127.78
2026-06-16 15:13:29.487126,43.57
2026-06-16 15:13:29.487126,-70.08
2026-06-16 15:13:29.502934,-66.75
2026-06-16 15:13:29.503640,-8.7
2026-06-16 15:13:29.518738,-20.6
2026-06-16 15:13:29.520749,-116.02
2026-06-16 15:13:29.520749,-189.07
2026-06-16 15:13:29.537075,-179.17
2026-06-16 15:13:29.542452,-122.55
2026-06-16 15:13:29.553829,-112.98
2026-06-16 15:13:29.562035,-144.26
2026-06-16 15:13:29.570545,-126.62
2026-06-16 15:13:29.570545,-45.39
2026-06-16 15:13:29.587307,3.59
2026-06-16 15:13:29.594041,-31.25
2026-06-16 15:13:29.604323,-75.87
2026-06-16 15:13:29.604323,-52.61
2026-06-16 15:13:29.620079,20.29
2026-06-16 15:13:29.620976,31.13
2026-06-16 15:13:29.635247,-10.81
2026-06-16 15:13:29.642720,-44.59
2026-06-16 15:13:29.642720,-39.39
2026-06-16 15:13:29.653873,-46.16
2026-06-16 15:13:29.653873,-76.77
2026-06-16 15:13:29.671034,-129.12
2026-06-16 15:13:29.671034,-145.39
2026-06-16 15:13:29.687361,-124.77
2026-06-16 15:13:29.694904,-64.44
2026-06-16 15:13:29.705996,6.52
2026-06-16 15:13:29.707489,33.36
2026-06-16 15:13:29.720546,18.27
2026-06-16 15:13:29.720546,-0.73
2026-06-16 15:13:29.737406,22.16
2026-06-16 15:13:29.742882,36.97
2026-06-16 15:13:29.753015,9.92
2026-06-16 15:13:29.755010,-48.83
2026-06-16 15:13:29.768703,-41.62
2026-06-16 15:13:29.771188,9.33
2026-06-16 15:13:29.771188,13.26
2026-06-16 15:13:29.787219,-44.51
2026-06-16 15:13:29.787219,-62.2
2026-06-16 15:13:29.803975,-18.11
2026-06-16 15:13:29.803975,1.88
2026-06-16 15:13:29.821210,-61.81
2026-06-16 15:13:29.821210,-118.21
2026-06-16 15:13:29.837994,-60.91
2026-06-16 15:13:29.842877,37.9
2026-06-16 15:13:29.854300,57.61
2026-06-16 15:13:29.854918,14.54
2026-06-16 15:13:29.869743,3.52
2026-06-16 15:13:29.871636,18.43
2026-06-16 15:13:29.885329,43.21
2026-06-16 15:13:29.888343,41.01
2026-06-16 15:13:29.888343,20.9
2026-06-16 15:13:29.904916,1.89
2026-06-16 15:13:29.904916,12.83
2026-06-16 15:13:29.921229,19.73
2026-06-16 15:13:29.921229,-1.27
2026-06-16 15:13:29.938111,-11.21
2026-06-16 15:13:29.942997,24.67
2026-06-16 15:13:29.956320,80.26
2026-06-16 15:13:29.960847,81.85
2026-06-16 15:13:29.970765,21.74
2026-06-16 15:13:29.970765,-18.17
2026-06-16 15:13:29.986616,31.67
2026-06-16 15:13:29.988205,112.11
2026-06-16 15:13:30.003133,101.6
2026-06-16 15:13:30.004682,25.47
2026-06-16 15:13:30.019333,2.46
2026-06-16 15:13:30.022111,25.33
2026-06-16 15:13:30.022111,28.19
2026-06-16 15:13:30.036953,-30.66
2026-06-16 15:13:30.043398,-88.21
2026-06-16 15:13:30.055010,-86.78
2026-06-16 15:13:30.055010,-75.4
2026-06-16 15:13:30.070419,-74.03
2026-06-16 15:13:30.070419,-58.73
2026-06-16 15:13:30.087198,0.27
2026-06-16 15:13:30.087198,17.18
2026-06-16 15:13:30.103813,-15.74
2026-06-16 15:13:30.103813,-15.66
2026-06-16 15:13:30.120420,53.07
2026-06-16 15:13:30.120420,128.43
2026-06-16 15:13:30.135558,155.65
2026-06-16 15:13:30.143629,98.15
2026-06-16 15:13:30.151988,16.07
2026-06-16 15:13:30.154018,-40.72
2026-06-16 15:13:30.154018,-37.53
2026-06-16 15:13:30.170424,-9.49
2026-06-16 15:13:30.170424,-2.47
2026-06-16 15:13:30.187637,-45.25
2026-06-16 15:13:30.187637,-104.72
2026-06-16 15:13:30.204332,-127.08
2026-06-16 15:13:30.213704,-119.48
2026-06-16 15:13:30.221248,-87.04
2026-06-16 15:13:30.221248,-43.82
2026-06-16 15:13:30.236487,11.12
2026-06-16 15:13:30.244115,51.86
2026-06-16 15:13:30.252256,87.42
2026-06-16 15:13:30.258992,123.8
2026-06-16 15:13:30.269080,140.09
2026-06-16 15:13:30.276747,49.84
2026-06-16 15:13:30.276747,-138.46
2026-06-16 15:13:30.288212,-267.12
2026-06-16 15:13:30.288212,-187.18
2026-06-16 15:13:30.304611,-19.08
2026-06-16 15:13:30.304611,31.76
2026-06-16 15:13:30.321555,-72.88
2026-06-16 15:13:30.321555,-155.1
2026-06-16 15:13:30.337448,-106.56
2026-06-16 15:13:30.344284,-32.4
2026-06-16 15:13:30.354312,-29.25
2026-06-16 15:13:30.355318,-78.85
2026-06-16 15:13:30.369929,-87.42
2026-06-16 15:13:30.371746,-46.18
2026-06-16 15:13:30.385515,-15.11
2026-06-16 15:13:30.388532,-29.96
2026-06-16 15:13:30.402078,-54.68
2026-06-16 15:13:30.405082,-49.43
2026-06-16 15:13:30.405082,-1.43
2026-06-16 15:13:30.420882,38.38
2026-06-16 15:13:30.420882,43.16
2026-06-16 15:13:30.438058,27.03
2026-06-16 15:13:30.444734,43.81
2026-06-16 15:13:30.454795,85.38
2026-06-16 15:13:30.454795,101.87
2026-06-16 15:13:30.471539,81.46
2026-06-16 15:13:30.476918,64.14
2026-06-16 15:13:30.486728,92.67
2026-06-16 15:13:30.490048,100.17
2026-06-16 15:13:30.503422,42.95
2026-06-16 15:13:30.505041,-18.95
2026-06-16 15:13:30.519016,28.9
2026-06-16 15:13:30.521463,147.16
2026-06-16 15:13:30.535086,186.23
2026-06-16 15:13:30.537695,104.7
2026-06-16 15:13:30.544966,15.62
2026-06-16 15:13:30.554029,-12.32
2026-06-16 15:13:30.554029,20.58
2026-06-16 15:13:30.570627,24.46
2026-06-16 15:13:30.570627,-52.28
2026-06-16 15:13:30.588420,-129.63
2026-06-16 15:13:30.593626,-128.98
2026-06-16 15:13:30.604169,-57.69
2026-06-16 15:13:30.604169,-24.57
2026-06-16 15:13:30.619828,-74.2
2026-06-16 15:13:30.621260,-129.54
2026-06-16 15:13:30.635568,-87.11
2026-06-16 15:13:30.638527,-4.09
2026-06-16 15:13:30.652186,17.82
2026-06-16 15:13:30.655169,-4.15
2026-06-16 15:13:30.655169,-3.14
2026-06-16 15:13:30.670338,-8.1
2026-06-16 15:13:30.670338,-24.97
2026-06-16 15:13:30.687286,-29.82
2026-06-16 15:13:30.687286,-15.74
2026-06-16 15:13:30.704477,-42.53
2026-06-16 15:13:30.704477,-113.96
2026-06-16 15:13:30.721588,-142.24
2026-06-16 15:13:30.727802,-103.72
2026-06-16 15:13:30.737487,-37.53
2026-06-16 15:13:30.745385,-47.3
2026-06-16 15:13:30.753100,-120.69
2026-06-16 15:13:30.754637,-135.01
2026-06-16 15:13:30.768816,-61.7
2026-06-16 15:13:30.771673,11.24
2026-06-16 15:13:30.771673,13.18
2026-06-16 15:13:30.786861,-8.78
2026-06-16 15:13:30.786861,21.11
2026-06-16 15:13:30.804119,67.77
2026-06-16 15:13:30.804119,83.36
2026-06-16 15:13:30.821815,23.24
2026-06-16 15:13:30.821815,-32.6
2026-06-16 15:13:30.837952,-50.34
2026-06-16 15:13:30.845796,-72.98
2026-06-16 15:13:30.854263,-78.58
2026-06-16 15:13:30.859492,-72.22
2026-06-16 15:13:30.870071,-68.87
2026-06-16 15:13:30.871765,-83.45
2026-06-16 15:13:30.885502,-56.17
2026-06-16 15:13:30.887923,4.8
2026-06-16 15:13:30.902160,56.52
2026-06-16 15:13:30.906040,58.23
2026-06-16 15:13:30.906040,42.02
2026-06-16 15:13:30.920603,57.73
2026-06-16 15:13:30.920603,85.3
2026-06-16 15:13:30.938188,71.94
2026-06-16 15:13:30.946237,42.72
2026-06-16 15:13:30.954922,37.53
2026-06-16 15:13:30.954922,29.38
2026-06-16 15:13:30.971609,-25.49
2026-06-16 15:13:30.976981,-60.18
2026-06-16 15:13:30.987477,-38.99
2026-06-16 15:13:30.987963,-55.71
2026-06-16 15:13:31.003223,-126.08
2026-06-16 15:13:31.005686,-162.26
2026-06-16 15:13:31.018887,-75.88
2026-06-16 15:13:31.021961,12.06
2026-06-16 15:13:31.035118,-22.82
2026-06-16 15:13:31.038057,-107.29
2026-06-16 15:13:31.046691,-57.99
2026-06-16 15:13:31.054251,86.57
2026-06-16 15:13:31.054251,130.91
2026-06-16 15:13:31.069852,32.75
2026-06-16 15:13:31.069852,-39.06
2026-06-16 15:13:31.089031,12.88
2026-06-16 15:13:31.095059,93.41
2026-06-16 15:13:31.103547,80.01
2026-06-16 15:13:31.103547,-1.98
2026-06-16 15:13:31.120078,-22.87
2026-06-16 15:13:31.120078,27.99
2026-06-16 15:13:31.135163,78.6
2026-06-16 15:13:31.137292,75.22
2026-06-16 15:13:31.151947,38.03
2026-06-16 15:13:31.153959,5.0
2026-06-16 15:13:31.153959,-1.99
2026-06-16 15:13:31.170146,23.89
2026-06-16 15:13:31.170146,83.47
2026-06-16 15:13:31.188172,118.88
2026-06-16 15:13:31.188172,98.38
2026-06-16 15:13:31.205040,14.31
2026-06-16 15:13:31.205040,-44.47
2026-06-16 15:13:31.221298,-13.4
2026-06-16 15:13:31.221298,47.36
2026-06-16 15:13:31.237466,48.12
2026-06-16 15:13:31.242891,-60.57
2026-06-16 15:13:31.252533,-154.8
2026-06-16 15:13:31.254221,-129.15
2026-06-16 15:13:31.268735,1.84
2026-06-16 15:13:31.270761,70.49
2026-06-16 15:13:31.270761,-0.51
2026-06-16 15:13:31.287055,-49.26
2026-06-16 15:13:31.287055,45.51
2026-06-16 15:13:31.303928,161.7
2026-06-16 15:13:31.303928,160.89
2026-06-16 15:13:31.320701,61.58
2026-06-16 15:13:31.320701,-4.4
2026-06-16 15:13:31.338043,-6.37
2026-06-16 15:13:31.343252,12.57
2026-06-16 15:13:31.354713,18.48
2026-06-16 15:13:31.354713,19.38
2026-06-16 15:13:31.370686,42.17
2026-06-16 15:13:31.371732,9.12
2026-06-16 15:13:31.385243,-74.5
2026-06-16 15:13:31.387897,-190.55
2026-06-16 15:13:31.402115,-289.09
2026-06-16 15:13:31.405163,-307.55
2026-06-16 15:13:31.405163,-227.4
2026-06-16 15:13:31.421348,-86.97
2026-06-16 15:13:31.421348,9.98
2026-06-16 15:13:31.437239,52.72
2026-06-16 15:13:31.448125,87.28
2026-06-16 15:13:31.454816,97.79
2026-06-16 15:13:31.460059,42.57
2026-06-16 15:13:31.470412,-38.23
2026-06-16 15:13:31.470412,-41.03
2026-06-16 15:13:31.487572,56.69
2026-06-16 15:13:31.487572,101.18
2026-06-16 15:13:31.502966,29.03
2026-06-16 15:13:31.504435,-80.56
2026-06-16 15:13:31.518643,-88.12
2026-06-16 15:13:31.521455,-44.89
2026-06-16 15:13:31.534984,-30.74
2026-06-16 15:13:31.537446,-27.6
2026-06-16 15:13:31.548366,-0.6
2026-06-16 15:13:31.554003,38.21
2026-06-16 15:13:31.554003,59.91
2026-06-16 15:13:31.571048,95.43
2026-06-16 15:13:31.571048,141.72
2026-06-16 15:13:31.587293,163.89
2026-06-16 15:13:31.587293,175.01
2026-06-16 15:13:31.603751,206.97
2026-06-16 15:13:31.603751,262.65
2026-06-16 15:13:31.619483,272.29
2026-06-16 15:13:31.620897,183.36
2026-06-16 15:13:31.636139,87.92
2026-06-16 15:13:31.637747,17.83
2026-06-16 15:13:31.651990,-19.07
2026-06-16 15:13:31.654691,-67.73
2026-06-16 15:13:31.654691,-118.14
2026-06-16 15:13:31.670790,-153.37
2026-06-16 15:13:31.670790,-153.59
2026-06-16 15:13:31.687555,-119.0
2026-06-16 15:13:31.687555,-96.51
2026-06-16 15:13:31.704091,-109.96
2026-06-16 15:13:31.704091,-129.31
2026-06-16 15:13:31.720335,-135.63
2026-06-16 15:13:31.720335,-85.2
2026-06-16 15:13:31.737102,-14.13
2026-06-16 15:13:31.737727,-19.03
2026-06-16 15:13:31.752728,-81.62
2026-06-16 15:13:31.757086,-107.08
2026-06-16 15:13:31.768850,-58.79
2026-06-16 15:13:31.770910,-25.66
2026-06-16 15:13:31.784813,-21.55
2026-06-16 15:13:31.787432,-47.31
2026-06-16 15:13:31.787432,-64.99
2026-06-16 15:13:31.803497,-64.66
2026-06-16 15:13:31.803497,-78.27
2026-06-16 15:13:31.820443,-101.76
2026-06-16 15:13:31.820443,-93.29
2026-06-16 15:13:31.837051,-52.03
2026-06-16 15:13:31.837051,-4.01
2026-06-16 15:13:31.854235,27.85
2026-06-16 15:13:31.854235,25.72
2026-06-16 15:13:31.869458,5.69
2026-06-16 15:13:31.870962,2.68
2026-06-16 15:13:31.885244,22.57
2026-06-16 15:13:31.888263,-9.38
2026-06-16 15:13:31.902139,-103.86
2026-06-16 15:13:31.905538,-207.82
2026-06-16 15:13:31.905538,-201.8
2026-06-16 15:13:31.920809,-109.26
2026-06-16 15:13:31.920809,-83.83
2026-06-16 15:13:31.937554,-164.01
2026-06-16 15:13:31.937554,-191.05
2026-06-16 15:13:31.954384,-61.74
2026-06-16 15:13:31.954384,60.95
2026-06-16 15:13:31.971297,28.81
2026-06-16 15:13:31.971297,-70.83
2026-06-16 15:13:31.987209,-78.44
2026-06-16 15:13:31.987611,6.53
2026-06-16 15:13:32.002709,54.25
2026-06-16 15:13:32.008370,29.11
2026-06-16 15:13:32.018239,22.99
2026-06-16 15:13:32.020819,37.8
2026-06-16 15:13:32.034706,41.59
2026-06-16 15:13:32.037378,-13.34
2026-06-16 15:13:32.049797,-55.06
2026-06-16 15:13:32.056215,-38.87
2026-06-16 15:13:32.056215,-20.76
2026-06-16 15:13:32.069592,-33.59
2026-06-16 15:13:32.069592,-74.22
2026-06-16 15:13:32.086541,-115.64
2026-06-16 15:13:32.086541,-127.0
2026-06-16 15:13:32.102892,-108.46
2026-06-16 15:13:32.102892,-75.08
2026-06-16 15:13:32.119610,-42.86
2026-06-16 15:13:32.125754,-35.69
2026-06-16 15:13:32.135024,-37.5
2026-06-16 15:13:32.137384,-48.25
2026-06-16 15:13:32.151937,-76.87
2026-06-16 15:13:32.153958,-119.27
2026-06-16 15:13:32.153958,-90.81
2026-06-16 15:13:32.170018,-49.56
2026-06-16 15:13:32.170018,-65.24
2026-06-16 15:13:32.186794,-92.77
2026-06-16 15:13:32.186794,-24.65
2026-06-16 15:13:32.203248,97.86
2026-06-16 15:13:32.212813,119.26
2026-06-16 15:13:32.219796,29.12
2026-06-16 15:13:32.219796,-32.72
2026-06-16 15:13:32.236857,36.1
2026-06-16 15:13:32.236857,120.49
2026-06-16 15:13:32.252287,92.03
2026-06-16 15:13:32.253673,19.93
2026-06-16 15:13:32.267871,7.89
2026-06-16 15:13:32.271778,39.69
2026-06-16 15:13:32.284732,59.39
2026-06-16 15:13:32.286706,13.33
2026-06-16 15:13:32.286706,-17.58
2026-06-16 15:13:32.303593,-16.5
2026-06-16 15:13:32.303593,-12.44
2026-06-16 15:13:32.320153,-69.09
2026-06-16 15:13:32.320153,-140.39
2026-06-16 15:13:32.337313,-121.77
2026-06-16 15:13:32.337313,-57.49
2026-06-16 15:13:32.353899,-26.35
2026-06-16 15:13:32.353899,-51.1
2026-06-16 15:13:32.370228,-59.8
2026-06-16 15:13:32.370549,-26.66
2026-06-16 15:13:32.386139,-0.66
2026-06-16 15:13:32.387805,0.34
2026-06-16 15:13:32.401845,6.31
2026-06-16 15:13:32.404864,19.21
2026-06-16 15:13:32.404864,49.96
2026-06-16 15:13:32.420795,43.74
2026-06-16 15:13:32.420795,-30.11
2026-06-16 15:13:32.436676,-114.53
2026-06-16 15:13:32.436676,-92.07
2026-06-16 15:13:32.453536,-7.03
2026-06-16 15:13:32.453536,69.62
2026-06-16 15:13:32.470607,100.11
2026-06-16 15:13:32.470607,61.8
2026-06-16 15:13:32.487461,-53.93
2026-06-16 15:13:32.487461,-235.74
2026-06-16 15:13:32.502675,-331.08
2026-06-16 15:13:32.504674,-225.94
2026-06-16 15:13:32.518156,-6.91
2026-06-16 15:13:32.521115,94.62
2026-06-16 15:13:32.534892,57.33
2026-06-16 15:13:32.537692,35.15
2026-06-16 15:13:32.537692,56.87
2026-06-16 15:13:32.553907,52.6
2026-06-16 15:13:32.553907,34.43
2026-06-16 15:13:32.570504,17.34
2026-06-16 15:13:32.570504,7.3
2026-06-16 15:13:32.587447,-27.56
2026-06-16 15:13:32.587447,-63.24
2026-06-16 15:13:32.604365,-37.05
2026-06-16 15:13:32.604365,-15.97
2026-06-16 15:13:32.619850,-43.75
2026-06-16 15:13:32.619850,-67.41
2026-06-16 15:13:32.636081,18.49
2026-06-16 15:13:32.637844,89.05
2026-06-16 15:13:32.651794,39.85
2026-06-16 15:13:32.654562,-39.95
2026-06-16 15:13:32.654562,-27.81
2026-06-16 15:13:32.670303,62.87
2026-06-16 15:13:32.670303,149.12
2026-06-16 15:13:32.686704,178.22
2026-06-16 15:13:32.686704,165.39
2026-06-16 15:13:32.703888,133.72
2026-06-16 15:13:32.703888,105.19
2026-06-16 15:13:32.719920,92.73
2026-06-16 15:13:32.723108,84.3
2026-06-16 15:13:32.736994,35.13
2026-06-16 15:13:32.736994,-22.76
2026-06-16 15:13:32.752733,28.1
2026-06-16 15:13:32.755400,95.62
2026-06-16 15:13:32.767766,52.36
2026-06-16 15:13:32.769682,-28.5
2026-06-16 15:13:32.784293,-20.4
2026-06-16 15:13:32.789296,22.49
2026-06-16 15:13:32.789296,-0.51
2026-06-16 15:13:32.803133,-72.15
2026-06-16 15:13:32.803133,-88.7
2026-06-16 15:13:32.819704,-43.48
2026-06-16 15:13:32.819704,-39.28
2026-06-16 15:13:32.836015,-121.67
2026-06-16 15:13:32.836015,-202.65
2026-06-16 15:13:32.853023,-204.63
2026-06-16 15:13:32.853023,-139.92
2026-06-16 15:13:32.869549,-77.53
2026-06-16 15:13:32.869549,-99.04
2026-06-16 15:13:32.885314,-161.23
2026-06-16 15:13:32.886614,-154.45
2026-06-16 15:13:32.900940,-20.35
2026-06-16 15:13:32.902838,86.22
2026-06-16 15:13:32.902838,43.0
2026-06-16 15:13:32.919844,-75.62
2026-06-16 15:13:32.919844,-90.16
2026-06-16 15:13:32.936617,-8.12
2026-06-16 15:13:32.936617,77.49
2026-06-16 15:13:32.952701,111.93
2026-06-16 15:13:32.956626,89.48
2026-06-16 15:13:32.969637,31.32
2026-06-16 15:13:32.969637,-15.6
2026-06-16 15:13:32.986338,-39.4
2026-06-16 15:13:32.986338,-76.02
2026-06-16 15:13:33.002062,-86.59
2026-06-16 15:13:33.003053,-58.29
2026-06-16 15:13:33.018586,-28.15
2026-06-16 15:13:33.019345,-58.86
2026-06-16 15:13:33.034301,-115.28
2026-06-16 15:13:33.036315,-105.75
2026-06-16 15:13:33.036315,-13.68
2026-06-16 15:13:33.053706,15.25
2026-06-16 15:13:33.053706,-39.56
2026-06-16 15:13:33.069421,-54.28
2026-06-16 15:13:33.069421,13.65
2026-06-16 15:13:33.086327,42.43
2026-06-16 15:13:33.086327,-61.26
2026-06-16 15:13:33.103403,-168.41
2026-06-16 15:13:33.103403,-133.74
2026-06-16 15:13:33.119761,24.14
2026-06-16 15:13:33.119761,79.74
2026-06-16 15:13:33.135648,-37.07
2026-06-16 15:13:33.136947,-162.26
2026-06-16 15:13:33.151312,-106.72
2026-06-16 15:13:33.153346,32.12
2026-06-16 15:13:33.167692,56.83
2026-06-16 15:13:33.170372,-25.04
2026-06-16 15:13:33.170372,-49.79
2026-06-16 15:13:33.186352,30.06
2026-06-16 15:13:33.186352,106.52
2026-06-16 15:13:33.203730,107.98
2026-06-16 15:13:33.203730,81.57
2026-06-16 15:13:33.220347,39.37
2026-06-16 15:13:33.220347,16.29
2026-06-16 15:13:33.237192,11.23
2026-06-16 15:13:33.242541,-15.69
2026-06-16 15:13:33.252395,-43.47
2026-06-16 15:13:33.253785,-70.12
2026-06-16 15:13:33.268208,-14.05
2026-06-16 15:13:33.270952,36.77
2026-06-16 15:13:33.284899,7.73
2026-06-16 15:13:33.289578,-59.97
2026-06-16 15:13:33.296323,-61.66
2026-06-16 15:13:33.304386,11.28
2026-06-16 15:13:33.304386,61.97
2026-06-16 15:13:33.319762,73.6
2026-06-16 15:13:33.319762,79.2
2026-06-16 15:13:33.336666,103.68
2026-06-16 15:13:33.336666,129.03
2026-06-16 15:13:33.353874,95.55
2026-06-16 15:13:33.356076,55.28
2026-06-16 15:13:33.369873,69.92
2026-06-16 15:13:33.370605,112.36
2026-06-16 15:13:33.385809,128.71
2026-06-16 15:13:33.387381,81.3
2026-06-16 15:13:33.401507,17.22
2026-06-16 15:13:33.404455,-19.68
2026-06-16 15:13:33.417715,-12.62
2026-06-16 15:13:33.420317,7.34
2026-06-16 15:13:33.420317,55.07
2026-06-16 15:13:33.436597,91.61
2026-06-16 15:13:33.436597,17.52
2026-06-16 15:13:33.453624,-105.95
2026-06-16 15:13:33.453624,-74.57
2026-06-16 15:13:33.469942,90.97
2026-06-16 15:13:33.469942,130.31
2026-06-16 15:13:33.486701,-31.53
2026-06-16 15:13:33.486701,-172.66
2026-06-16 15:13:33.502522,-82.25
2026-06-16 15:13:33.503831,61.44
2026-06-16 15:13:33.517927,16.36
2026-06-16 15:13:33.520394,-151.87
2026-06-16 15:13:33.534577,-165.05
2026-06-16 15:13:33.536589,24.83
2026-06-16 15:13:33.536589,219.73
2026-06-16 15:13:33.553425,221.61
2026-06-16 15:13:33.553425,62.3
2026-06-16 15:13:33.569889,-76.32
2026-06-16 15:13:33.569889,-91.86
2026-06-16 15:13:33.587407,-12.79
2026-06-16 15:13:33.587407,48.96
2026-06-16 15:13:33.603993,39.76
2026-06-16 15:13:33.603993,41.55
2026-06-16 15:13:33.619815,69.21
2026-06-16 15:13:33.620447,81.79
2026-06-16 15:13:33.635760,81.39
2026-06-16 15:13:33.637303,51.13
2026-06-16 15:13:33.651281,-15.79
2026-06-16 15:13:33.653553,-114.22
2026-06-16 15:13:33.667549,-113.65
2026-06-16 15:13:33.670274,-46.41
2026-06-16 15:13:33.670274,-14.34
2026-06-16 15:13:33.686548,-35.16
2026-06-16 15:13:33.686548,-95.68
2026-06-16 15:13:33.703919,-92.22
2026-06-16 15:13:33.703919,-26.09
2026-06-16 15:13:33.720403,31.75
2026-06-16 15:13:33.720403,42.54
2026-06-16 15:13:33.736764,17.45
2026-06-16 15:13:33.737575,37.26
2026-06-16 15:13:33.752482,133.59
2026-06-16 15:13:33.754235,215.51
2026-06-16 15:13:33.768554,192.54
2026-06-16 15:13:33.769558,116.95
2026-06-16 15:13:33.784543,175.07
2026-06-16 15:13:33.786805,282.65
2026-06-16 15:13:33.786805,276.26
2026-06-16 15:13:33.805556,178.37
2026-06-16 15:13:33.812804,152.6
2026-06-16 15:13:33.821069,245.37
2026-06-16 15:13:33.821069,273.99
2026-06-16 15:13:33.836803,148.25
2026-06-16 15:13:33.836803,40.05
2026-06-16 15:13:33.854494,77.65
2026-06-16 15:13:33.858402,153.88
2026-06-16 15:13:33.869883,108.34
2026-06-16 15:13:33.872589,-16.58
2026-06-16 15:13:33.885490,-81.17
2026-06-16 15:13:33.887337,-53.9
2026-06-16 15:13:33.901512,-10.85
2026-06-16 15:13:33.904531,-44.62
2026-06-16 15:13:33.917490,-53.35
2026-06-16 15:13:33.919850,12.58
2026-06-16 15:13:33.919850,65.26
2026-06-16 15:13:33.935747,-6.71
2026-06-16 15:13:33.935747,-125.08
2026-06-16 15:13:33.954864,-134.41
2026-06-16 15:13:33.954864,-58.12
2026-06-16 15:13:33.969876,-18.02
2026-06-16 15:13:33.969876,-61.71
2026-06-16 15:13:33.986419,-101.21
2026-06-16 15:13:33.986419,-73.83
2026-06-16 15:13:34.002254,-27.7
2026-06-16 15:13:34.003194,23.19
2026-06-16 15:13:34.017905,73.82
2026-06-16 15:13:34.020900,73.45
2026-06-16 15:13:34.034458,3.43
2026-06-16 15:13:34.036454,-40.37
2026-06-16 15:13:34.036454,96.15
2026-06-16 15:13:34.055149,238.95
2026-06-16 15:13:34.055149,167.11
2026-06-16 15:13:34.070014,-26.76
2026-06-16 15:13:34.070014,-73.39
2026-06-16 15:13:34.086112,75.23
2026-06-16 15:13:34.086112,170.38
2026-06-16 15:13:34.102627,113.81
2026-06-16 15:13:34.102627,49.56
2026-06-16 15:13:34.119375,98.06
2026-06-16 15:13:34.119375,192.1
2026-06-16 15:13:34.135770,188.15
2026-06-16 15:13:34.137793,111.59
2026-06-16 15:13:34.151036,71.24
2026-06-16 15:13:34.155557,91.77
2026-06-16 15:13:34.167273,142.06
2026-06-16 15:13:34.169662,114.49
2026-06-16 15:13:34.169662,12.42
2026-06-16 15:13:34.185965,-78.18
2026-06-16 15:13:34.185965,-76.8
2026-06-16 15:13:34.202922,-31.64
2026-06-16 15:13:34.202922,-53.37
2026-06-16 15:13:34.219651,-110.81
2026-06-16 15:13:34.219651,-69.47
2026-06-16 15:13:34.236673,46.3
2026-06-16 15:13:34.236673,72.94
2026-06-16 15:13:34.252255,-0.06
2026-06-16 15:13:34.256005,-58.77
2026-06-16 15:13:34.267978,-58.48
2026-06-16 15:13:34.270873,-54.2
2026-06-16 15:13:34.284434,-58.91
2026-06-16 15:13:34.286784,-61.6
2026-06-16 15:13:34.300775,-4.57
2026-06-16 15:13:34.303563,72.06
2026-06-16 15:13:34.303563,68.72
2026-06-16 15:13:34.321979,-46.05
2026-06-16 15:13:34.327471,-143.33
2026-06-16 15:13:34.336188,-114.75
2026-06-16 15:13:34.336188,-83.33
2026-06-16 15:13:34.354205,-157.54
2026-06-16 15:13:34.359459,-256.26
2026-06-16 15:13:34.369726,-188.31
2026-06-16 15:13:34.370572,-35.13
2026-06-16 15:13:34.385344,-30.98
2026-06-16 15:13:34.386881,-108.43
2026-06-16 15:13:34.401077,-52.17
2026-06-16 15:13:34.404055,61.52
2026-06-16 15:13:34.417615,24.4
2026-06-16 15:13:34.420214,-162.78
2026-06-16 15:13:34.420214,-242.56
2026-06-16 15:13:34.436014,-189.61
2026-06-16 15:13:34.436014,-169.76
2026-06-16 15:13:34.453585,-230.6
2026-06-16 15:13:34.456663,-235.42
2026-06-16 15:13:34.470576,-130.76
2026-06-16 15:13:34.470576,-36.58
2026-06-16 15:13:34.487154,-4.55
2026-06-16 15:13:34.487154,-32.39
2026-06-16 15:13:34.502944,-72.03
2026-06-16 15:13:34.503706,-80.62
2026-06-16 15:13:34.517870,-57.34
2026-06-16 15:13:34.520856,-42.12
2026-06-16 15:13:34.534316,-49.87
2026-06-16 15:13:34.537024,-62.56
2026-06-16 15:13:34.537024,-65.23
2026-06-16 15:13:34.557347,-83.81
2026-06-16 15:13:34.557347,-100.31
2026-06-16 15:13:34.569194,-93.83
2026-06-16 15:13:34.569194,-60.53
2026-06-16 15:13:34.585934,-27.39
2026-06-16 15:13:34.585934,23.49
2026-06-16 15:13:34.603395,67.15
2026-06-16 15:13:34.603395,-38.65
2026-06-16 15:13:34.619919,-248.41
2026-06-16 15:13:34.620833,-404.37
2026-06-16 15:13:34.635382,-385.44
2026-06-16 15:13:34.637373,-251.17
2026-06-16 15:13:34.650805,-140.47
2026-06-16 15:13:34.657340,-128.82
2026-06-16 15:13:34.667519,-127.18
2026-06-16 15:13:34.670544,-109.63
2026-06-16 15:13:34.670544,-87.19
2026-06-16 15:13:34.685862,-102.68
2026-06-16 15:13:34.685862,-153.9
2026-06-16 15:13:34.702654,-230.74
2026-06-16 15:13:34.702654,-215.66
2026-06-16 15:13:34.719576,-114.09
2026-06-16 15:13:34.719576,-70.73
2026-06-16 15:13:34.736188,-106.2
2026-06-16 15:13:34.736188,-107.66
2026-06-16 15:13:34.752858,1.34
2026-06-16 15:13:34.757398,111.77
2026-06-16 15:13:34.768645,98.28
2026-06-16 15:13:34.770331,0.28
2026-06-16 15:13:34.784278,-45.49
2026-06-16 15:13:34.786906,31.35
2026-06-16 15:13:34.786906,130.69
2026-06-16 15:13:34.803076,141.98
2026-06-16 15:13:34.803076,99.48
2026-06-16 15:13:34.819596,72.12
2026-06-16 15:13:34.819596,109.57
2026-06-16 15:13:34.836687,94.09
2026-06-16 15:13:34.842263,25.96
2026-06-16 15:13:34.852440,13.89
2026-06-16 15:13:34.857537,57.6
2026-06-16 15:13:34.869616,100.1
2026-06-16 15:13:34.869616,49.85
2026-06-16 15:13:34.886156,-27.01
2026-06-16 15:13:34.887184,-33.84
2026-06-16 15:13:34.901813,-3.82
2026-06-16 15:13:34.903789,-21.71
2026-06-16 15:13:34.917422,-114.14
2026-06-16 15:13:34.920247,-154.37
2026-06-16 15:13:34.920247,-88.92
2026-06-16 15:13:34.936152,-16.83
2026-06-16 15:13:34.936152,-43.61
2026-06-16 15:13:34.952484,-165.78
2026-06-16 15:13:34.958010,-213.71
2026-06-16 15:13:34.969445,-129.06
2026-06-16 15:13:34.969445,-61.75
2026-06-16 15:13:34.987028,-99.25
2026-06-16 15:13:34.992227,-204.22
2026-06-16 15:13:35.002869,-203.2
2026-06-16 15:13:35.003597,-104.68
2026-06-16 15:13:35.018619,-27.54
2026-06-16 15:13:35.020334,-36.36
2026-06-16 15:13:35.034489,-56.07
2026-06-16 15:13:35.037508,-38.88
2026-06-16 15:13:35.050540,12.06
2026-06-16 15:13:35.053348,49.81
2026-06-16 15:13:35.058323,34.64
2026-06-16 15:13:35.069400,-18.27
2026-06-16 15:13:35.069400,-24.15
2026-06-16 15:13:35.086119,13.78
2026-06-16 15:13:35.086119,67.44
2026-06-16 15:13:35.102506,77.05
2026-06-16 15:13:35.102506,34.88
2026-06-16 15:13:35.118945,12.81
2026-06-16 15:13:35.118945,-1.18
2026-06-16 15:13:35.134770,-55.9
2026-06-16 15:13:35.136110,-119.3
2026-06-16 15:13:35.150814,-104.77
2026-06-16 15:13:35.158356,-48.53
2026-06-16 15:13:35.167162,-71.17
2026-06-16 15:13:35.169726,-141.46
2026-06-16 15:13:35.169726,-97.97
2026-06-16 15:13:35.185726,8.99
2026-06-16 15:13:35.185726,4.96
2026-06-16 15:13:35.202649,-139.34
2026-06-16 15:13:35.202649,-252.07
2026-06-16 15:13:35.219262,-234.89
2026-06-16 15:13:35.219262,-153.12
2026-06-16 15:13:35.236177,-84.7
2026-06-16 15:13:35.236177,-82.28
2026-06-16 15:13:35.252710,-110.73
2026-06-16 15:13:35.258941,-117.14
2026-06-16 15:13:35.268286,-72.77
2026-06-16 15:13:35.269645,-24.65
2026-06-16 15:13:35.284163,-45.42
2026-06-16 15:13:35.286947,-129.77
2026-06-16 15:13:35.300284,-136.08
2026-06-16 15:13:35.303059,-65.75
2026-06-16 15:13:35.303059,-16.67
2026-06-16 15:13:35.319667,-40.47
2026-06-16 15:13:35.319667,-41.26
2026-06-16 15:13:35.336773,-27.12
2026-06-16 15:13:35.336773,-44.9
2026-06-16 15:13:35.353983,-56.61
2026-06-16 15:13:35.359401,-49.36
2026-06-16 15:13:35.369438,-15.29
2026-06-16 15:13:35.370415,-20.19
2026-06-16 15:13:35.385131,-82.77
2026-06-16 15:13:35.385890,-119.17
2026-06-16 15:13:35.401611,-68.83
2026-06-16 15:13:35.403333,31.02
2026-06-16 15:13:35.417292,92.55
2026-06-16 15:13:35.419992,65.23
2026-06-16 15:13:35.419992,-29.63
2026-06-16 15:13:35.436383,-73.26
2026-06-16 15:13:35.436383,50.49
2026-06-16 15:13:35.453115,180.58
2026-06-16 15:13:35.460159,173.71
2026-06-16 15:13:35.470319,54.44
2026-06-16 15:13:35.472362,-19.47
2026-06-16 15:13:35.486630,71.18
2026-06-16 15:13:35.486630,156.39
2026-06-16 15:13:35.502766,124.76
2026-06-16 15:13:35.503763,43.54
2026-06-16 15:13:35.518275,36.36
2026-06-16 15:13:35.519893,105.83
2026-06-16 15:13:35.533954,217.74
2026-06-16 15:13:35.536834,294.26
2026-06-16 15:13:35.550352,268.91
2026-06-16 15:13:35.552988,195.92
2026-06-16 15:13:35.560679,171.06
2026-06-16 15:13:35.569387,200.06
2026-06-16 15:13:35.569387,246.82
2026-06-16 15:13:35.586019,275.43
2026-06-16 15:13:35.586019,317.83
2026-06-16 15:13:35.603950,315.25
2026-06-16 15:13:35.609326,152.48
2026-06-16 15:13:35.618931,-105.98
2026-06-16 15:13:35.618931,-253.71
2026-06-16 15:13:35.634966,-178.81
2026-06-16 15:13:35.636891,-65.48
2026-06-16 15:13:35.651550,-23.36
2026-06-16 15:13:35.653522,-14.29
2026-06-16 15:13:35.667363,40.5
2026-06-16 15:13:35.669387,84.08
2026-06-16 15:13:35.669387,44.86
2026-06-16 15:13:35.686267,3.84
2026-06-16 15:13:35.686267,21.73
2026-06-16 15:13:35.703745,68.38
2026-06-16 15:13:35.703745,121.77
2026-06-16 15:13:35.719172,112.21
2026-06-16 15:13:35.719172,20.11
2026-06-16 15:13:35.736745,-71.53
2026-06-16 15:13:35.741909,-27.39
2026-06-16 15:13:35.753067,107.07
2026-06-16 15:13:35.760851,112.5
2026-06-16 15:13:35.768211,-21.39
2026-06-16 15:13:35.769822,-87.95
2026-06-16 15:13:35.783920,78.66
2026-06-16 15:13:35.786832,234.48
2026-06-16 15:13:35.800275,150.72
2026-06-16 15:13:35.803086,-35.1
2026-06-16 15:13:35.803086,-27.96
2026-06-16 15:13:35.819555,199.04
2026-06-16 15:13:35.819555,384.11
2026-06-16 15:13:35.836498,395.12
2026-06-16 15:13:35.836498,294.64
2026-06-16 15:13:35.853261,159.84
2026-06-16 15:13:35.861481,79.44
2026-06-16 15:13:35.869007,16.36
2026-06-16 15:13:35.873299,-26.51
2026-06-16 15:13:35.885434,-44.29
2026-06-16 15:13:35.885434,-85.86
2026-06-16 15:13:35.901520,-141.15
2026-06-16 15:13:35.903143,-232.98
2026-06-16 15:13:35.917345,-279.57
2026-06-16 15:13:35.919991,-224.44
2026-06-16 15:13:35.919991,-67.11
2026-06-16 15:13:35.935472,59.59
2026-06-16 15:13:35.935472,-21.3
2026-06-16 15:13:35.952139,-170.44
2026-06-16 15:13:35.961853,-181.53
2026-06-16 15:13:35.969603,-39.33
2026-06-16 15:13:35.969603,124.04
2026-06-16 15:13:35.986718,120.44
2026-06-16 15:13:35.991910,-19.46
2026-06-16 15:13:36.002517,-108.92
2026-06-16 15:13:36.003235,-82.5
2026-06-16 15:13:36.018260,-8.46
2026-06-16 15:13:36.020160,-36.28
2026-06-16 15:13:36.033819,-118.68
2026-06-16 15:13:36.036594,-187.74
2026-06-16 15:13:36.050034,-160.93
2026-06-16 15:13:36.057042,-75.55
2026-06-16 15:13:36.062361,-24.43
2026-06-16 15:13:36.068541,-22.31
2026-06-16 15:13:36.068541,-34.14
2026-06-16 15:13:36.085207,-51.88
2026-06-16 15:13:36.085207,-58.59
2026-06-16 15:13:36.102188,-25.46
2026-06-16 15:13:36.102188,12.48
2026-06-16 15:13:36.118665,-29.37
2026-06-16 15:13:36.118665,-105.84
2026-06-16 15:13:36.134969,-77.45
2026-06-16 15:13:36.134969,-16.37
2026-06-16 15:13:36.151051,-7.33
2026-06-16 15:13:36.151965,-50.08
2026-06-16 15:13:36.166904,-39.88
2026-06-16 15:13:36.169598,37.93
2026-06-16 15:13:36.169598,120.32
2026-06-16 15:13:36.185061,108.78
2026-06-16 15:13:36.185061,44.55
2026-06-16 15:13:36.202047,52.29
2026-06-16 15:13:36.202047,126.65
2026-06-16 15:13:36.219127,139.95
2026-06-16 15:13:36.219127,71.59
2026-06-16 15:13:36.235483,-23.29
2026-06-16 15:13:36.235483,-64.97
2026-06-16 15:13:36.252424,29.88
2026-06-16 15:13:36.258351,148.14
2026-06-16 15:13:36.268280,190.18
2026-06-16 15:13:36.269213,149.43
2026-06-16 15:13:36.283798,117.84
2026-06-16 15:13:36.286844,68.5
2026-06-16 15:13:36.300246,30.34
2026-06-16 15:13:36.302935,56.06
2026-06-16 15:13:36.302935,141.35
2026-06-16 15:13:36.319215,200.34
2026-06-16 15:13:36.319215,205.31
2026-06-16 15:13:36.335984,154.54
2026-06-16 15:13:36.335984,89.09
2026-06-16 15:13:36.353345,47.85
2026-06-16 15:13:36.353345,77.46
2026-06-16 15:13:36.370190,133.79
2026-06-16 15:13:36.370190,106.25
2026-06-16 15:13:36.385537,48.01
2026-06-16 15:13:36.391152,57.72
2026-06-16 15:13:36.401165,156.93
2026-06-16 15:13:36.402644,242.71
2026-06-16 15:13:36.417202,237.52
2026-06-16 15:13:36.419635,162.7
2026-06-16 15:13:36.419635,99.2
2026-06-16 15:13:36.435951,75.82
2026-06-16 15:13:36.435951,148.08
2026-06-16 15:13:36.453019,281.66
2026-06-16 15:13:36.463633,340.95
2026-06-16 15:13:36.469539,262.63
2026-06-16 15:13:36.469539,167.79
2026-06-16 15:13:36.486193,245.55
2026-06-16 15:13:36.486193,390.59
2026-06-16 15:13:36.502536,416.5
2026-06-16 15:13:36.503168,379.59
2026-06-16 15:13:36.518152,416.5
2026-06-16 15:13:36.520030,528.84
2026-06-16 15:13:36.533696,638.63
2026-06-16 15:13:36.536461,646.38
2026-06-16 15:13:36.550440,460.07
2026-06-16 15:13:36.553305,133.4
2026-06-16 15:13:36.563920,-63.28
2026-06-16 15:13:36.569334,-39.09
2026-06-16 15:13:36.569334,82.5
2026-06-16 15:13:36.586171,174.62
2026-06-16 15:13:36.586171,176.73
2026-06-16 15:13:36.603092,194.76
2026-06-16 15:13:36.603092,266.42
2026-06-16 15:13:36.619467,252.15
2026-06-16 15:13:36.624702,124.52
2026-06-16 15:13:36.635522,54.25
2026-06-16 15:13:36.636063,132.58
2026-06-16 15:13:36.651385,202.57
2026-06-16 15:13:36.653750,119.96
2026-06-16 15:13:36.666744,-34.86
2026-06-16 15:13:36.669279,-113.29
2026-06-16 15:13:36.669279,15.63
2026-06-16 15:13:36.685739,218.53
2026-06-16 15:13:36.685739,290.07
2026-06-16 15:13:36.703203,252.8
2026-06-16 15:13:36.703203,182.88
2026-06-16 15:13:36.719771,97.4
2026-06-16 15:13:36.719771,79.0
2026-06-16 15:13:36.735985,199.0
2026-06-16 15:13:36.744051,293.52
2026-06-16 15:13:36.752613,210.47
2026-06-16 15:13:36.752613,65.14
2026-06-16 15:13:36.768043,52.87
2026-06-16 15:13:36.768996,180.96
2026-06-16 15:13:36.783694,294.48
2026-06-16 15:13:36.786254,251.22
2026-06-16 15:13:36.800144,133.55
2026-06-16 15:13:36.802781,123.93
2026-06-16 15:13:36.802781,228.78
2026-06-16 15:13:36.819324,227.63
2026-06-16 15:13:36.819324,57.35
2026-06-16 15:13:36.835861,-176.77
2026-06-16 15:13:36.835861,-269.41
2026-06-16 15:13:36.853185,-183.49
2026-06-16 15:13:36.853185,-104.96
2026-06-16 15:13:36.869261,-103.44
2026-06-16 15:13:36.869261,-164.62
2026-06-16 15:13:36.885602,-197.62
2026-06-16 15:13:36.886049,-166.78
2026-06-16 15:13:36.901161,-32.62
2026-06-16 15:13:36.907626,172.51
2026-06-16 15:13:36.916542,211.45
2026-06-16 15:13:36.918150,19.35
2026-06-16 15:13:36.918150,-126.01
2026-06-16 15:13:36.935210,-70.66
2026-06-16 15:13:36.935210,113.77
2026-06-16 15:13:36.952569,135.09
2026-06-16 15:13:36.952569,-63.59
2026-06-16 15:13:36.968618,-239.39
2026-06-16 15:13:36.968618,-190.43
2026-06-16 15:13:36.986123,-13.36
2026-06-16 15:13:36.986123,9.59
2026-06-16 15:13:37.002997,-174.53
2026-06-16 15:13:37.002997,-340.82
2026-06-16 15:13:37.017880,-314.24
2026-06-16 15:13:37.019182,-153.47
2026-06-16 15:13:37.033473,-93.0
2026-06-16 15:13:37.035726,-233.83
2026-06-16 15:13:37.050282,-396.83
2026-06-16 15:13:37.056617,-437.64
2026-06-16 15:13:37.065317,-297.14
2026-06-16 15:13:37.068194,-135.46
2026-06-16 15:13:37.068194,-155.68
2026-06-16 15:13:37.085066,-311.12
2026-06-16 15:13:37.085066,-383.19
2026-06-16 15:13:37.102520,-279.78
2026-06-16 15:13:37.102520,-164.96
2026-06-16 15:13:37.118942,-177.07
2026-06-16 15:13:37.118942,-247.82
2026-06-16 15:13:37.135488,-273.45
2026-06-16 15:13:37.135488,-289.99
2026-06-16 15:13:37.151082,-375.1
2026-06-16 15:13:37.154645,-438.9
2026-06-16 15:13:37.166756,-352.13
2026-06-16 15:13:37.169315,-242.91
2026-06-16 15:13:37.169315,-219.8
2026-06-16 15:13:37.185187,-291.34
2026-06-16 15:13:37.185187,-377.44
2026-06-16 15:13:37.201767,-413.37
2026-06-16 15:13:37.201767,-364.53
2026-06-16 15:13:37.218406,-268.19
2026-06-16 15:13:37.218406,-221.08
2026-06-16 15:13:37.235152,-281.66
2026-06-16 15:13:37.235152,-384.73
2026-06-16 15:13:37.252095,-393.75
2026-06-16 15:13:37.253091,-271.38
2026-06-16 15:13:37.267619,-151.62
2026-06-16 15:13:37.268557,-169.77
2026-06-16 15:13:37.283381,-266.43
2026-06-16 15:13:37.286028,-338.73
2026-06-16 15:13:37.300121,-269.37
2026-06-16 15:13:37.302618,-124.75
2026-06-16 15:13:37.302618,-83.33
2026-06-16 15:13:37.318506,-172.46
2026-06-16 15:13:37.318506,-251.2
2026-06-16 15:13:37.336092,-212.13
2026-06-16 15:13:37.336092,-125.5
2026-06-16 15:13:37.352694,-116.92
2026-06-16 15:13:37.352694,-144.19
2026-06-16 15:13:37.368966,-134.52
2026-06-16 15:13:37.368966,-133.84
2026-06-16 15:13:37.385489,-176.95
2026-06-16 15:13:37.386163,-222.83
2026-06-16 15:13:37.401199,-171.97
2026-06-16 15:13:37.403084,-96.48
2026-06-16 15:13:37.416847,-44.26
2026-06-16 15:13:37.424269,-37.08
2026-06-16 15:13:37.432686,-71.72
2026-06-16 15:13:37.434696,-88.27
2026-06-16 15:13:37.434696,-23.16
2026-06-16 15:13:37.451349,94.37
2026-06-16 15:13:37.451349,150.61
2026-06-16 15:13:37.468918,56.33
2026-06-16 15:13:37.468918,-61.36
2026-06-16 15:13:37.486294,-60.06
2026-06-16 15:13:37.486294,20.84
2026-06-16 15:13:37.502642,89.39
2026-06-16 15:13:37.502642,39.19
2026-06-16 15:13:37.517914,-75.43
2026-06-16 15:13:37.518820,-101.92
2026-06-16 15:13:37.533359,52.82
2026-06-16 15:13:37.535847,184.89
2026-06-16 15:13:37.550021,49.64
2026-06-16 15:13:37.552566,-231.2
2026-06-16 15:13:37.552566,-344.47
2026-06-16 15:13:37.568816,-210.41
2026-06-16 15:13:37.568816,-59.12
2026-06-16 15:13:37.585399,-103.6
2026-06-16 15:13:37.585399,-156.81
2026-06-16 15:13:37.603174,-120.2
2026-06-16 15:13:37.608592,-108.66
2026-06-16 15:13:37.618393,-139.95
2026-06-16 15:13:37.620576,-173.08
2026-06-16 15:13:37.635375,-152.32
2026-06-16 15:13:37.635996,-89.87
2026-06-16 15:13:37.651080,-0.86
2026-06-16 15:13:37.653095,46.9
2026-06-16 15:13:37.667039,-4.08
2026-06-16 15:13:37.670054,30.77
2026-06-16 15:13:37.670054,276.38
2026-06-16 15:13:37.685081,481.96
2026-06-16 15:13:37.685081,799.94
2026-06-16 15:13:37.702027,858.62
2026-06-16 15:13:37.702027,730.95
2026-06-16 15:13:37.719094,1178.03
2026-06-16 15:13:37.719094,1839.78
2026-06-16 15:13:37.735779,2418.63
2026-06-16 15:13:37.737794,2401.56
2026-06-16 15:13:37.752642,1634.35
2026-06-16 15:13:37.752642,592.37
2026-06-16 15:13:37.767860,-742.89
2026-06-16 15:13:37.769266,-2209.79
2026-06-16 15:13:37.783008,-3556.92
2026-06-16 15:13:37.784593,-4014.74
2026-06-16 15:13:37.800037,-3811.59
2026-06-16 15:13:37.802490,-3480.1
2026-06-16 15:13:37.802490,-3392.05
2026-06-16 15:13:37.819072,-3464.64
2026-06-16 15:13:37.819072,-2856.29
2026-06-16 15:13:37.834888,-3201.2
2026-06-16 15:13:37.834888,-3421.01
2026-06-16 15:13:37.852118,-3068.59
2026-06-16 15:13:37.852118,-2560.73
2026-06-16 15:13:37.868735,-508.17
2026-06-16 15:13:37.868735,2764.93
2026-06-16 15:13:37.885732,8181.82
2026-06-16 15:13:37.886183,13346.75
2026-06-16 15:13:37.900943,16977.44
2026-06-16 15:13:37.902282,19347.21
2026-06-16 15:13:37.916696,20036.53
2026-06-16 15:13:37.921399,20376.13
2026-06-16 15:13:37.933016,18989.71
2026-06-16 15:13:37.939883,17854.99
2026-06-16 15:13:37.947665,18060.23
2026-06-16 15:13:37.951810,17449.54
2026-06-16 15:13:37.951810,16050.89
2026-06-16 15:13:37.968476,13598.55
2026-06-16 15:13:37.968476,11969.41
2026-06-16 15:13:37.986792,11271.76
2026-06-16 15:13:37.989246,10107.97
2026-06-16 15:13:38.001973,8474.38
2026-06-16 15:13:38.001973,6338.53
2026-06-16 15:13:38.018785,4691.96
2026-06-16 15:13:38.019458,3758.07
2026-06-16 15:13:38.034293,2710.45
2026-06-16 15:13:38.035955,1214.35
2026-06-16 15:13:38.050004,-10.6
2026-06-16 15:13:38.052527,-678.19
2026-06-16 15:13:38.066271,-1200.16
2026-06-16 15:13:38.070567,-1924.49
2026-06-16 15:13:38.070567,-2638.23
2026-06-16 15:13:38.084816,-3142.44
2026-06-16 15:13:38.084816,-3593.38
2026-06-16 15:13:38.101757,-4020.18
2026-06-16 15:13:38.101757,-4293.61
2026-06-16 15:13:38.118160,-4263.18
2026-06-16 15:13:38.118160,-4228.93
2026-06-16 15:13:38.134799,-4475.44
2026-06-16 15:13:38.134799,-4882.9
2026-06-16 15:13:38.151460,-5208.73
2026-06-16 15:13:38.151934,-5313.03
2026-06-16 15:13:38.166535,-5321.29
2026-06-16 15:13:38.168817,-5488.71
2026-06-16 15:13:38.168817,-5812.5
2026-06-16 15:13:38.184829,-5983.43
2026-06-16 15:13:38.184829,-5795.31
2026-06-16 15:13:38.201160,-5574.3
2026-06-16 15:13:38.201160,-5682.74
2026-06-16 15:13:38.218323,-5967.75
2026-06-16 15:13:38.218323,-5977.72
2026-06-16 15:13:38.234866,-5647.34
2026-06-16 15:13:38.234866,-5367.37
2026-06-16 15:13:38.252816,-5439.03
2026-06-16 15:13:38.252816,-5763.07
2026-06-16 15:13:38.268188,-5861.62
2026-06-16 15:13:38.269182,-5616.4
2026-06-16 15:13:38.284382,-5429.11
2026-06-16 15:13:38.286306,-5464.65
2026-06-16 15:13:38.299882,-5480.11
2026-06-16 15:13:38.302423,-5217.89
2026-06-16 15:13:38.302423,-4917.18
2026-06-16 15:13:38.318232,-4838.87
2026-06-16 15:13:38.318232,-4823.63
2026-06-16 15:13:38.334629,-4727.87
2026-06-16 15:13:38.334629,-4568.91
2026-06-16 15:13:38.352068,-4500.3
2026-06-16 15:13:38.352068,-4464.86
2026-06-16 15:13:38.369111,-4346.02
2026-06-16 15:13:38.369111,-4224.79
2026-06-16 15:13:38.385161,-4060.39
2026-06-16 15:13:38.386012,-3877.9
2026-06-16 15:13:38.400798,-3776.92
2026-06-16 15:13:38.402580,-3752.07
2026-06-16 15:13:38.416519,-3626.84
2026-06-16 15:13:38.419976,-3261.45
2026-06-16 15:13:38.432995,-2876.0
2026-06-16 15:13:38.435558,-2738.24
2026-06-16 15:13:38.448510,-2765.34
2026-06-16 15:13:38.454964,-2721.67
2026-06-16 15:13:38.463798,-2508.06
2026-06-16 15:13:38.468684,-2334.33
2026-06-16 15:13:38.468684,-2355.5
2026-06-16 15:13:38.484821,-2487.99
2026-06-16 15:13:38.484821,-2456.65
2026-06-16 15:13:38.501704,-2119.0
2026-06-16 15:13:38.501704,-1832.79
2026-06-16 15:13:38.518394,-1913.18
2026-06-16 15:13:38.518814,-2187.19
2026-06-16 15:13:38.534191,-2195.15
2026-06-16 15:13:38.535715,-1720.51
2026-06-16 15:13:38.549815,-1032.32
2026-06-16 15:13:38.552834,-489.86
2026-06-16 15:13:38.566200,-217.77
2026-06-16 15:13:38.568797,-114.19
2026-06-16 15:13:38.568797,-45.96
2026-06-16 15:13:38.584731,49.79
2026-06-16 15:13:38.584731,131.13
2026-06-16 15:13:38.601485,109.58
2026-06-16 15:13:38.601485,76.2
2026-06-16 15:13:38.618935,168.35
2026-06-16 15:13:38.618935,208.3
2026-06-16 15:13:38.635065,1.3
2026-06-16 15:13:38.636086,-277.31
2026-06-16 15:13:38.650775,-320.7
2026-06-16 15:13:38.652687,-149.94
2026-06-16 15:13:38.666575,-107.4
2026-06-16 15:13:38.669068,-399.4
2026-06-16 15:13:38.682858,-715.8
2026-06-16 15:13:38.685682,-729.14
2026-06-16 15:13:38.685682,-594.15
2026-06-16 15:13:38.701984,-652.87
2026-06-16 15:13:38.701984,-911.29
2026-06-16 15:13:38.718327,-1045.04
2026-06-16 15:13:38.718327,-914.44
2026-06-16 15:13:38.734840,-708.88
2026-06-16 15:13:38.734840,-677.48
2026-06-16 15:13:38.751922,-861.15
2026-06-16 15:13:38.751922,-1026.99
2026-06-16 15:13:38.768127,-906.43
2026-06-16 15:13:38.768947,-602.41
2026-06-16 15:13:38.783807,-472.04
2026-06-16 15:13:38.787179,-755.24
2026-06-16 15:13:38.799500,-1236.03
2026-06-16 15:13:38.801936,-1550.24
2026-06-16 15:13:38.801936,-1604.18
2026-06-16 15:13:38.817967,-1653.87
2026-06-16 15:13:38.817967,-1865.49
2026-06-16 15:13:38.834442,-2074.07
2026-06-16 15:13:38.834442,-2149.27
2026-06-16 15:13:38.852089,-2135.54
2026-06-16 15:13:38.852089,-2035.31
2026-06-16 15:13:38.868261,-1827.13
2026-06-16 15:13:38.868261,-1605.06
2026-06-16 15:13:38.884890,-1439.83
2026-06-16 15:13:38.884890,-1339.1
2026-06-16 15:13:38.900755,-1433.89
2026-06-16 15:13:38.902399,-1706.32
2026-06-16 15:13:38.917099,-1856.99
2026-06-16 15:13:38.918964,-1953.17
2026-06-16 15:13:38.932590,-2372.25
2026-06-16 15:13:38.935261,-3257.88
2026-06-16 15:13:38.935261,-4053.51
2026-06-16 15:13:38.952144,-4201.4
2026-06-16 15:13:38.963871,-3801.3
2026-06-16 15:13:38.968240,-3444.98
2026-06-16 15:13:38.972494,-3466.56
2026-06-16 15:13:38.984336,-3601.47
2026-06-16 15:13:38.984336,-3574.5
2026-06-16 15:13:39.012730,-3508.87
2026-06-16 15:13:39.031533,-3451.53
2026-06-16 15:13:39.032391,-3248.21
2026-06-16 15:13:39.032391,-2951.37
2026-06-16 15:13:39.033407,-2848.06
2026-06-16 15:13:39.043900,-2916.41
2026-06-16 15:13:39.049042,-2791.38
2026-06-16 15:13:39.051118,-2276.94
2026-06-16 15:13:39.065847,-1633.73
2026-06-16 15:13:39.068612,-1281.29
2026-06-16 15:13:39.068612,-1191.3
2026-06-16 15:13:39.084460,-996.3
2026-06-16 15:13:39.084460,-572.42
2026-06-16 15:13:39.102269,-194.44
2026-06-16 15:13:39.102269,-83.03
2026-06-16 15:13:39.118799,-94.55
2026-06-16 15:13:39.118799,34.28
2026-06-16 15:13:39.134541,390.32
2026-06-16 15:13:39.134541,773.43
2026-06-16 15:13:39.151094,1024.28
2026-06-16 15:13:39.151472,1198.26
2026-06-16 15:13:39.166789,1354.45
2026-06-16 15:13:39.169028,1447.18
2026-06-16 15:13:39.182363,1419.05
2026-06-16 15:13:39.184206,1273.65
2026-06-16 15:13:39.184206,1111.07
2026-06-16 15:13:39.201007,945.32
2026-06-16 15:13:39.201007,748.56
2026-06-16 15:13:39.218542,535.86
2026-06-16 15:13:39.218542,394.88
2026-06-16 15:13:39.235351,293.4
2026-06-16 15:13:39.235351,193.43
2026-06-16 15:13:39.252842,126.8
2026-06-16 15:13:39.258079,92.33
2026-06-16 15:13:39.267982,81.92
2026-06-16 15:13:39.269254,81.51
2026-06-16 15:13:39.283653,92.05
2026-06-16 15:13:39.285615,126.41
2026-06-16 15:13:39.299381,166.58
2026-06-16 15:13:39.302343,140.87
2026-06-16 15:13:39.316066,62.55
2026-06-16 15:13:39.319102,38.36
2026-06-16 15:13:39.319102,117.77
2026-06-16 15:13:39.334648,231.6
2026-06-16 15:13:39.334648,312.04
2026-06-16 15:13:39.351804,360.23
2026-06-16 15:13:39.351804,433.05
2026-06-16 15:13:39.369740,560.23
2026-06-16 15:13:39.369740,697.73
2026-06-16 15:13:39.384593,800.71
2026-06-16 15:13:39.384593,847.45
2026-06-16 15:13:39.401255,885.0
2026-06-16 15:13:39.401786,957.19
2026-06-16 15:13:39.416903,1065.83
2026-06-16 15:13:39.418462,1191.84
2026-06-16 15:13:39.432603,1352.05
2026-06-16 15:13:39.435250,1400.01
2026-06-16 15:13:39.449054,1246.75
2026-06-16 15:13:39.452160,1018.63
2026-06-16 15:13:39.452160,949.86
2026-06-16 15:13:39.470058,1131.17
2026-06-16 15:13:39.470058,1386.21
2026-06-16 15:13:39.485149,1507.63
2026-06-16 15:13:39.489904,1483.18
2026-06-16 15:13:39.501245,1451.88
2026-06-16 15:13:39.501245,1476.46
2026-06-16 15:13:39.518370,1520.82
2026-06-16 15:13:39.518370,1544.06
2026-06-16 15:13:39.534497,1488.58
2026-06-16 15:13:39.534998,1392.58
2026-06-16 15:13:39.549094,1339.85
2026-06-16 15:13:39.552040,1318.23
2026-06-16 15:13:39.566157,1278.8
2026-06-16 15:13:39.570184,1161.96
2026-06-16 15:13:39.570184,1053.67
2026-06-16 15:13:39.585097,1020.54
2026-06-16 15:13:39.585097,992.55
2026-06-16 15:13:39.601939,893.06
2026-06-16 15:13:39.601939,756.26
2026-06-16 15:13:39.617721,707.71
2026-06-16 15:13:39.617721,757.9
2026-06-16 15:13:39.634559,841.67
2026-06-16 15:13:39.634559,845.42
2026-06-16 15:13:39.651217,782.49
2026-06-16 15:13:39.652071,742.76
2026-06-16 15:13:39.666874,746.01
2026-06-16 15:13:39.670674,749.24
2026-06-16 15:13:39.682738,744.5
2026-06-16 15:13:39.685848,728.84
2026-06-16 15:13:39.685848,764.0
2026-06-16 15:13:39.701828,815.9
2026-06-16 15:13:39.701828,829.73
2026-06-16 15:13:39.717699,810.66
2026-06-16 15:13:39.717699,783.72
2026-06-16 15:13:39.734748,760.89
2026-06-16 15:13:39.734748,748.13
2026-06-16 15:13:39.751596,768.27
2026-06-16 15:13:39.751596,796.27
2026-06-16 15:13:39.767636,851.0
2026-06-16 15:13:39.771188,911.42
2026-06-16 15:13:39.783637,947.65
2026-06-16 15:13:39.784962,968.79
2026-06-16 15:13:39.799153,1011.7
2026-06-16 15:13:39.802197,1042.46
2026-06-16 15:13:39.815907,1058.15
2026-06-16 15:13:39.818567,1061.81
2026-06-16 15:13:39.818567,1106.25
2026-06-16 15:13:39.834357,1134.55
2026-06-16 15:13:39.834357,1096.04
2026-06-16 15:13:39.851322,1016.93
2026-06-16 15:13:39.851322,1023.79
2026-06-16 15:13:39.868594,1137.07
2026-06-16 15:13:39.871657,1175.17
2026-06-16 15:13:39.884327,1090.69
2026-06-16 15:13:39.884327,1019.56
2026-06-16 15:13:39.901243,1050.29
2026-06-16 15:13:39.901243,1118.66
2026-06-16 15:13:39.916895,1108.1
2026-06-16 15:13:39.918550,1027.93
2026-06-16 15:13:39.932567,982.99
2026-06-16 15:13:39.935241,988.03
2026-06-16 15:13:39.935241,1013.93
2026-06-16 15:13:39.951440,1000.9
2026-06-16 15:13:39.951440,970.03
2026-06-16 15:13:39.968158,902.49
2026-06-16 15:13:39.972050,848.23
2026-06-16 15:13:39.985124,825.08
2026-06-16 15:13:39.990313,815.98
2026-06-16 15:13:40.000959,864.64
2026-06-16 15:13:40.004783,884.19
2026-06-16 15:13:40.017875,833.01
2026-06-16 15:13:40.017875,765.16
2026-06-16 15:13:40.033551,779.25
2026-06-16 15:13:40.039765,866.89
2026-06-16 15:13:40.049199,947.13
2026-06-16 15:13:40.051976,1009.06
2026-06-16 15:13:40.066041,1085.61
2026-06-16 15:13:40.072809,1175.7
2026-06-16 15:13:40.072809,1213.6
2026-06-16 15:13:40.084674,1135.89
2026-06-16 15:13:40.084674,1035.69
2026-06-16 15:13:40.101346,1004.64
2026-06-16 15:13:40.101346,1084.19
2026-06-16 15:13:40.118427,1170.31
2026-06-16 15:13:40.118427,1103.76
2026-06-16 15:13:40.134260,941.03
2026-06-16 15:13:40.134260,848.77
2026-06-16 15:13:40.150938,937.06
2026-06-16 15:13:40.151503,1029.88
2026-06-16 15:13:40.166508,975.98
2026-06-16 15:13:40.173244,813.89
2026-06-16 15:13:40.183350,765.05
2026-06-16 15:13:40.184981,841.82
2026-06-16 15:13:40.184981,899.3
2026-06-16 15:13:40.201089,868.93
2026-06-16 15:13:40.201089,806.88
2026-06-16 15:13:40.217416,752.1
2026-06-16 15:13:40.217416,733.41
2026-06-16 15:13:40.234907,708.85
2026-06-16 15:13:40.234907,690.38
2026-06-16 15:13:40.251534,671.01
2026-06-16 15:13:40.251534,621.88
2026-06-16 15:13:40.267879,534.2
2026-06-16 15:13:40.273596,443.97
2026-06-16 15:13:40.283451,433.79
2026-06-16 15:13:40.285075,470.42
2026-06-16 15:13:40.299000,537.72
2026-06-16 15:13:40.301846,544.98
2026-06-16 15:13:40.315724,487.53
2026-06-16 15:13:40.318485,469.17
2026-06-16 15:13:40.318485,570.31
2026-06-16 15:13:40.334191,726.66
2026-06-16 15:13:40.334191,757.85
2026-06-16 15:13:40.351933,629.68
2026-06-16 15:13:40.351933,507.14
2026-06-16 15:13:40.367322,488.68
2026-06-16 15:13:40.374092,543.95
2026-06-16 15:13:40.383503,551.18
2026-06-16 15:13:40.383503,472.8
2026-06-16 15:13:40.400765,379.89
2026-06-16 15:13:40.400765,288.44
2026-06-16 15:13:40.416474,257.15
2026-06-16 15:13:40.417510,271.79
2026-06-16 15:13:40.432492,274.41
2026-06-16 15:13:40.436235,283.98
2026-06-16 15:13:40.436235,377.08
2026-06-16 15:13:40.451299,469.72
2026-06-16 15:13:40.451299,352.95
2026-06-16 15:13:40.468338,58.66
2026-06-16 15:13:40.478712,-130.69
2026-06-16 15:13:40.485009,-86.25
2026-06-16 15:13:40.485009,41.54
2026-06-16 15:13:40.501689,6.5
2026-06-16 15:13:40.501689,-164.67
2026-06-16 15:13:40.517960,-238.47
2026-06-16 15:13:40.526075,-186.53
2026-06-16 15:13:40.533589,-107.99
2026-06-16 15:13:40.534598,-119.39
2026-06-16 15:13:40.549109,-198.39
2026-06-16 15:13:40.551489,-242.18
2026-06-16 15:13:40.565613,-155.4
2026-06-16 15:13:40.568274,-30.24
2026-06-16 15:13:40.574681,-38.05
2026-06-16 15:13:40.584339,-154.28
2026-06-16 15:13:40.584339,-199.28
2026-06-16 15:13:40.601216,-101.76
2026-06-16 15:13:40.601216,36.05
2026-06-16 15:13:40.618640,32.89
2026-06-16 15:13:40.618640,-76.72
2026-06-16 15:13:40.635193,-122.11
2026-06-16 15:13:40.639591,-82.7
2026-06-16 15:13:40.651286,-64.37
2026-06-16 15:13:40.652272,-90.92
2026-06-16 15:13:40.667045,-62.6
2026-06-16 15:13:40.674849,-26.47
2026-06-16 15:13:40.682580,-37.28
2026-06-16 15:13:40.685285,-149.53
2026-06-16 15:13:40.698779,-335.84
2026-06-16 15:13:40.701625,-437.64
2026-06-16 15:13:40.701625,-354.86
2026-06-16 15:13:40.717197,-189.9
2026-06-16 15:13:40.717197,-77.52
2026-06-16 15:13:40.735277,-59.22
2026-06-16 15:13:40.735277,-76.83
2026-06-16 15:13:40.751946,-100.33
2026-06-16 15:13:40.751946,-184.4
2026-06-16 15:13:40.768046,-374.52
2026-06-16 15:13:40.775278,-501.0
2026-06-16 15:13:40.783574,-414.92
2026-06-16 15:13:40.785313,-292.45
2026-06-16 15:13:40.799258,-332.77
2026-06-16 15:13:40.802420,-555.98
2026-06-16 15:13:40.815849,-794.99
2026-06-16 15:13:40.819250,-886.53
2026-06-16 15:13:40.819250,-767.67
2026-06-16 15:13:40.834554,-545.93
2026-06-16 15:13:40.834554,-452.65
2026-06-16 15:13:40.851829,-566.81
2026-06-16 15:13:40.851829,-731.13
2026-06-16 15:13:40.868609,-740.41
2026-06-16 15:13:40.875489,-609.35
2026-06-16 15:13:40.884440,-530.68
2026-06-16 15:13:40.884440,-550.91
2026-06-16 15:13:40.901056,-540.2
2026-06-16 15:13:40.901056,-504.66
2026-06-16 15:13:40.916948,-531.99
2026-06-16 15:13:40.918714,-640.77
2026-06-16 15:13:40.932637,-685.33
2026-06-16 15:13:40.935123,-630.16
2026-06-16 15:13:40.948736,-535.47
2026-06-16 15:13:40.951104,-483.04
2026-06-16 15:13:40.951104,-488.59
2026-06-16 15:13:40.967122,-454.3
2026-06-16 15:13:40.975752,-319.7
2026-06-16 15:13:40.984392,-206.66
2026-06-16 15:13:40.984392,-226.52
2026-06-16 15:13:41.001986,-367.67
2026-06-16 15:13:41.007282,-473.29
2026-06-16 15:13:41.017767,-457.0
2026-06-16 15:13:41.018517,-407.95
2026-06-16 15:13:41.033188,-434.76
2026-06-16 15:13:41.041923,-523.13
2026-06-16 15:13:41.049055,-521.51
2026-06-16 15:13:41.051080,-486.07
2026-06-16 15:13:41.065682,-494.59
2026-06-16 15:13:41.069571,-516.99
2026-06-16 15:13:41.075844,-499.48
2026-06-16 15:13:41.083599,-437.28
2026-06-16 15:13:41.083599,-406.24
2026-06-16 15:13:41.101089,-391.27
2026-06-16 15:13:41.101089,-317.68
2026-06-16 15:13:41.118211,-172.81
2026-06-16 15:13:41.118211,-62.49
2026-06-16 15:13:41.134062,-82.08
2026-06-16 15:13:41.134062,-158.29
2026-06-16 15:13:41.151337,-175.41
2026-06-16 15:13:41.151337,-136.72
2026-06-16 15:13:41.166420,-121.11
2026-06-16 15:13:41.167420,-200.1
2026-06-16 15:13:41.182375,-258.8
2026-06-16 15:13:41.184821,-227.66
2026-06-16 15:13:41.198627,-102.15
2026-06-16 15:13:41.201537,10.8
2026-06-16 15:13:41.201537,37.61
2026-06-16 15:13:41.217273,13.54
2026-06-16 15:13:41.217273,53.27
2026-06-16 15:13:41.234655,183.35
2026-06-16 15:13:41.234655,260.05
2026-06-16 15:13:41.250956,224.92
2026-06-16 15:13:41.250956,200.91
2026-06-16 15:13:41.267968,271.54
2026-06-16 15:13:41.275961,372.67
2026-06-16 15:13:41.283567,369.81
2026-06-16 15:13:41.285146,293.34
2026-06-16 15:13:41.299269,284.91
2026-06-16 15:13:41.302290,311.34
2026-06-16 15:13:41.315905,278.94
2026-06-16 15:13:41.318935,144.21
2026-06-16 15:13:41.318935,63.89
2026-06-16 15:13:41.334821,116.31
2026-06-16 15:13:41.334821,189.36
2026-06-16 15:13:41.351777,193.39
2026-06-16 15:13:41.351777,145.65
2026-06-16 15:13:41.368849,153.88
2026-06-16 15:13:41.376637,245.65
2026-06-16 15:13:41.384961,369.79
2026-06-16 15:13:41.384961,392.81
2026-06-16 15:13:41.400969,292.34
2026-06-16 15:13:41.400969,235.16
2026-06-16 15:13:41.416627,318.56
2026-06-16 15:13:41.418035,486.12
2026-06-16 15:13:41.432353,590.15
2026-06-16 15:13:41.434979,492.68
2026-06-16 15:13:41.448525,272.31
2026-06-16 15:13:41.451562,87.87
2026-06-16 15:13:41.451562,41.66
2026-06-16 15:13:41.467896,118.07
2026-06-16 15:13:41.477090,240.86
2026-06-16 15:13:41.484289,310.3
2026-06-16 15:13:41.484289,277.9
2026-06-16 15:13:41.501219,265.56
2026-06-16 15:13:41.501219,282.15
2026-06-16 15:13:41.517907,301.63
2026-06-16 15:13:41.518540,314.05
2026-06-16 15:13:41.533547,318.45
2026-06-16 15:13:41.539863,328.8
2026-06-16 15:13:41.549590,348.05
2026-06-16 15:13:41.557686,335.37
2026-06-16 15:13:41.565829,336.67
2026-06-16 15:13:41.567841,329.02
2026-06-16 15:13:41.577835,281.61
2026-06-16 15:13:41.584399,222.49
2026-06-16 15:13:41.584399,223.37
2026-06-16 15:13:41.601634,250.11
2026-06-16 15:13:41.601634,212.04
2026-06-16 15:13:41.617762,140.34
2026-06-16 15:13:41.617762,152.57
2026-06-16 15:13:41.634240,288.12
2026-06-16 15:13:41.634240,383.2
2026-06-16 15:13:41.651038,340.49
2026-06-16 15:13:41.651540,307.94
2026-06-16 15:13:41.666722,398.93
2026-06-16 15:13:41.668710,465.6
2026-06-16 15:13:41.682469,384.66
2026-06-16 15:13:41.685256,261.35
2026-06-16 15:13:41.698430,313.77
2026-06-16 15:13:41.701232,454.49
2026-06-16 15:13:41.701232,426.35
2026-06-16 15:13:41.717932,202.33
2026-06-16 15:13:41.717932,21.22
2026-06-16 15:13:41.734195,20.12
2026-06-16 15:13:41.734195,60.82
2026-06-16 15:13:41.752031,10.76
2026-06-16 15:13:41.754947,-97.75
2026-06-16 15:13:41.768372,-122.13
2026-06-16 15:13:41.768372,-52.87
2026-06-16 15:13:41.783353,0.13
2026-06-16 15:13:41.784775,0.13
2026-06-16 15:13:41.799237,9.09
2026-06-16 15:13:41.802110,42.87
2026-06-16 15:13:41.815899,71.51
2026-06-16 15:13:41.818592,44.29
2026-06-16 15:13:41.818592,8.25
2026-06-16 15:13:41.834287,-10.7
2026-06-16 15:13:41.834287,-26.57
2026-06-16 15:13:41.850760,-59.27
2026-06-16 15:13:41.850760,-48.03
2026-06-16 15:13:41.867506,5.94
2026-06-16 15:13:41.867506,-7.02
2026-06-16 15:13:41.884215,-84.6
2026-06-16 15:13:41.884215,-111.04
2026-06-16 15:13:41.900967,-34.86
2026-06-16 15:13:41.901894,-1.85
2026-06-16 15:13:41.916772,-89.4
2026-06-16 15:13:41.917784,-122.79
2026-06-16 15:13:41.932558,24.09
2026-06-16 15:13:41.935457,152.33
2026-06-16 15:13:41.948494,71.96
2026-06-16 15:13:41.950562,-89.59
2026-06-16 15:13:41.950562,-65.26
2026-06-16 15:13:41.967007,56.46
2026-06-16 15:13:41.979038,44.24
2026-06-16 15:13:41.984291,-98.27
2026-06-16 15:13:41.984291,-151.51
2026-06-16 15:13:42.002034,9.44
2026-06-16 15:13:42.004846,157.65
2026-06-16 15:13:42.017623,119.05
2026-06-16 15:13:42.017623,0.05
2026-06-16 15:13:42.033331,28.91
2026-06-16 15:13:42.041879,200.9
2026-06-16 15:13:42.048521,295.41
2026-06-16 15:13:42.050538,221.3
2026-06-16 15:13:42.064987,112.74
2026-06-16 15:13:42.072817,92.27
2026-06-16 15:13:42.079054,142.56
2026-06-16 15:13:42.083328,136.87
2026-06-16 15:13:42.083328,76.48
2026-06-16 15:13:42.100366,22.37
2026-06-16 15:13:42.100366,-7.59
2026-06-16 15:13:42.116761,-28.45
2026-06-16 15:13:42.116761,-34.28
2026-06-16 15:13:42.133556,-28.13
2026-06-16 15:13:42.133556,-66.8
2026-06-16 15:13:42.150148,-113.23
2026-06-16 15:13:42.150148,-88.78
2026-06-16 15:13:42.165927,1.21
2026-06-16 15:13:42.166885,34.04
2026-06-16 15:13:42.181531,-38.77
2026-06-16 15:13:42.183140,-125.14
2026-06-16 15:13:42.183140,-86.7
2026-06-16 15:13:42.199872,1.29
2026-06-16 15:13:42.199872,4.27
2026-06-16 15:13:42.216346,-56.45
2026-06-16 15:13:42.216346,-52.18
2026-06-16 15:13:42.233260,46.58
2026-06-16 15:13:42.233260,183.66
2026-06-16 15:13:42.249988,262.34
2026-06-16 15:13:42.249988,213.27
2026-06-16 15:13:42.266531,124.64
2026-06-16 15:13:42.266531,123.02
2026-06-16 15:13:42.283252,210.96
2026-06-16 15:13:42.283252,253.69
2026-06-16 15:13:42.299222,208.64
2026-06-16 15:13:42.300256,148.89
2026-06-16 15:13:42.315004,158.1
2026-06-16 15:13:42.317047,240.89
2026-06-16 15:13:42.317047,303.36
2026-06-16 15:13:42.333637,241.15
2026-06-16 15:13:42.333637,121.54
2026-06-16 15:13:42.350025,33.37
2026-06-16 15:13:42.350025,51.12
2026-06-16 15:13:42.366532,146.38
2026-06-16 15:13:42.366532,189.43
2026-06-16 15:13:42.383683,137.74
2026-06-16 15:13:42.383683,68.39
2026-06-16 15:13:42.400192,69.05
2026-06-16 15:13:42.400192,61.74
2026-06-16 15:13:42.415919,63.42
2026-06-16 15:13:42.416913,114.84
2026-06-16 15:13:42.431536,149.09
2026-06-16 15:13:42.433751,102.58
2026-06-16 15:13:42.433751,30.42
2026-06-16 15:13:42.451153,-35.4
2026-06-16 15:13:42.451153,-66.07
2026-06-16 15:13:42.466621,-50.81
2026-06-16 15:13:42.466621,16.11
2026-06-16 15:13:42.483452,96.62
2026-06-16 15:13:42.483452,176.73
2026-06-16 15:13:42.500543,211.67
2026-06-16 15:13:42.500543,118.08
2026-06-16 15:13:42.516791,-4.9
2026-06-16 15:13:42.516791,17.02
2026-06-16 15:13:42.533453,198.02
2026-06-16 15:13:42.534309,389.07
2026-06-16 15:13:42.549246,424.93
2026-06-16 15:13:42.551122,249.68
2026-06-16 15:13:42.565067,14.6
2026-06-16 15:13:42.568078,-139.7
2026-06-16 15:13:42.580367,-143.97
2026-06-16 15:13:42.588503,-63.65
2026-06-16 15:13:42.589889,-22.54
2026-06-16 15:13:42.601143,-71.18
2026-06-16 15:13:42.601143,-76.8
2026-06-16 15:13:42.617618,39.01
2026-06-16 15:13:42.617618,124.38
2026-06-16 15:13:42.634002,42.17
2026-06-16 15:13:42.634002,-82.41
2026-06-16 15:13:42.650294,-68.07
2026-06-16 15:13:42.650294,42.71
2026-06-16 15:13:42.667073,63.39
2026-06-16 15:13:42.668054,-64.28
2026-06-16 15:13:42.681510,-192.32
2026-06-16 15:13:42.683579,-175.43
2026-06-16 15:13:42.683579,-31.28
2026-06-16 15:13:42.700204,71.36
2026-06-16 15:13:42.700204,25.24
2026-06-16 15:13:42.717107,-117.17
2026-06-16 15:13:42.717107,-161.36
2026-06-16 15:13:42.734226,-59.07
2026-06-16 15:13:42.734226,48.69
2026-06-16 15:13:42.750811,54.42
2026-06-16 15:13:42.750811,-12.52
2026-06-16 15:13:42.766861,-40.32
2026-06-16 15:13:42.770340,-45.09
2026-06-16 15:13:42.783624,-32.93
2026-06-16 15:13:42.783624,16.99
2026-06-16 15:13:42.799305,74.61
2026-06-16 15:13:42.801137,33.44
2026-06-16 15:13:42.814820,-117.96
2026-06-16 15:13:42.817826,-222.84
2026-06-16 15:13:42.817826,-185.91
2026-06-16 15:13:42.834123,-132.24
2026-06-16 15:13:42.834123,-131.58
2026-06-16 15:13:42.850938,-183.66
2026-06-16 15:13:42.850938,-230.5
2026-06-16 15:13:42.867064,-252.23
2026-06-16 15:13:42.867064,-255.95
2026-06-16 15:13:42.883914,-228.8
2026-06-16 15:13:42.883914,-223.67
2026-06-16 15:13:42.900222,-245.44
2026-06-16 15:13:42.901167,-233.27
2026-06-16 15:13:42.916514,-98.77
2026-06-16 15:13:42.916514,28.09
2026-06-16 15:13:42.931284,37.9
2026-06-16 15:13:42.933222,15.82
2026-06-16 15:13:42.933222,25.69
2026-06-16 15:13:42.949938,83.27
2026-06-16 15:13:42.959762,137.58
2026-06-16 15:13:42.966722,133.9
2026-06-16 15:13:42.966722,90.45
2026-06-16 15:13:42.983435,65.12
2026-06-16 15:13:42.983435,141.41
2026-06-16 15:13:43.000345,226.28
2026-06-16 15:13:43.000345,153.5
2026-06-16 15:13:43.017135,-37.31
2026-06-16 15:13:43.022320,-139.61
2026-06-16 15:13:43.033779,-40.4
2026-06-16 15:13:43.034453,38.4
2026-06-16 15:13:43.049686,-41.39
2026-06-16 15:13:43.052258,-206.35
2026-06-16 15:13:43.064811,-242.14
2026-06-16 15:13:43.066846,-116.55
2026-06-16 15:13:43.066846,-8.51
2026-06-16 15:13:43.083138,8.45
2026-06-16 15:13:43.094800,-29.4
2026-06-16 15:13:43.100924,-65.07
2026-06-16 15:13:43.100924,-51.81
2026-06-16 15:13:43.116997,-24.69
2026-06-16 15:13:43.116997,6.28
2026-06-16 15:13:43.133702,18.19
2026-06-16 15:13:43.133702,6.16
2026-06-16 15:13:43.149646,-10.79
2026-06-16 15:13:43.149646,-41.58
2026-06-16 15:13:43.165781,-104.06
2026-06-16 15:13:43.166795,-222.94
2026-06-16 15:13:43.181357,-264.61
2026-06-16 15:13:43.183452,-196.62
2026-06-16 15:13:43.198210,-145.89
2026-06-16 15:13:43.200782,-198.89
2026-06-16 15:13:43.200782,-241.67
2026-06-16 15:13:43.216872,-168.82
2026-06-16 15:13:43.216872,-65.5
2026-06-16 15:13:43.233509,-55.22
2026-06-16 15:13:43.233509,-102.7
2026-06-16 15:13:43.250295,-102.19
2026-06-16 15:13:43.250295,-28.05
2026-06-16 15:13:43.267148,-13.98
2026-06-16 15:13:43.272294,-148.23
2026-06-16 15:13:43.283780,-315.65
2026-06-16 15:13:43.286338,-327.0
2026-06-16 15:13:43.299493,-198.01
2026-06-16 15:13:43.301426,-116.42
2026-06-16 15:13:43.314830,-155.64
2026-06-16 15:13:43.317581,-236.45
2026-06-16 15:13:43.331231,-229.3
2026-06-16 15:13:43.333800,-183.38
2026-06-16 15:13:43.333800,-214.3
2026-06-16 15:13:43.350321,-253.03
2026-06-16 15:13:43.350321,-229.88
2026-06-16 15:13:43.367841,-175.0
2026-06-16 15:13:43.372980,-116.41
2026-06-16 15:13:43.384407,-6.38
2026-06-16 15:13:43.389622,106.09
2026-06-16 15:13:43.400024,110.53
2026-06-16 15:13:43.400024,53.27
2026-06-16 15:13:43.416181,71.9
2026-06-16 15:13:43.417445,188.95
2026-06-16 15:13:43.431896,292.48
2026-06-16 15:13:43.434775,278.09
2026-06-16 15:13:43.448972,255.8
2026-06-16 15:13:43.451345,305.27
2026-06-16 15:13:43.451345,393.29
2026-06-16 15:13:43.466599,389.33
2026-06-16 15:13:43.466599,268.98
2026-06-16 15:13:43.483606,147.24
2026-06-16 15:13:43.483606,107.7
2026-06-16 15:13:43.500890,138.01
2026-06-16 15:13:43.506044,136.32
2026-06-16 15:13:43.517727,116.74
2026-06-16 15:13:43.522952,146.0
2026-06-16 15:13:43.533800,234.82
2026-06-16 15:13:43.534401,266.48
2026-06-16 15:13:43.549455,219.38
2026-06-16 15:13:43.551336,200.37
2026-06-16 15:13:43.565212,287.93
2026-06-16 15:13:43.567751,392.95
2026-06-16 15:13:43.581514,442.73
2026-06-16 15:13:43.584614,441.51
2026-06-16 15:13:43.584614,370.65
2026-06-16 15:13:43.601758,185.71
2026-06-16 15:13:43.607982,-9.24
2026-06-16 15:13:43.617625,-56.95
2026-06-16 15:13:43.617625,-0.95
2026-06-16 15:13:43.633589,24.93
2026-06-16 15:13:43.633589,23.81
2026-06-16 15:13:43.650382,63.49
2026-06-16 15:13:43.656254,105.96
2026-06-16 15:13:43.667007,102.44
2026-06-16 15:13:43.668016,40.24
2026-06-16 15:13:43.682302,3.22
2026-06-16 15:13:43.684151,-0.77
2026-06-16 15:13:43.698339,-17.69
2026-06-16 15:13:43.701275,-69.34
2026-06-16 15:13:43.701275,-97.85
2026-06-16 15:13:43.717365,-82.43
2026-06-16 15:13:43.717365,-18.34
2026-06-16 15:13:43.734044,55.38
2026-06-16 15:13:43.734044,26.25
2026-06-16 15:13:43.751337,-87.31
2026-06-16 15:13:43.751337,-131.65
2026-06-16 15:13:43.766882,-81.24
2026-06-16 15:13:43.766882,-36.06
2026-06-16 15:13:43.783811,-30.9
2026-06-16 15:13:43.787039,-20.8
2026-06-16 15:13:43.799618,30.05
2026-06-16 15:13:43.801539,51.79
2026-06-16 15:13:43.815213,28.65
2026-06-16 15:13:43.818232,-33.19
2026-06-16 15:13:43.831378,-74.81
2026-06-16 15:13:43.834152,-102.3
2026-06-16 15:13:43.834152,-126.66
2026-06-16 15:13:43.850914,-149.91
2026-06-16 15:13:43.850914,-205.87
2026-06-16 15:13:43.867803,-239.67
2026-06-16 15:13:43.867803,-250.41
2026-06-16 15:13:43.883883,-244.18
2026-06-16 15:13:43.883883,-234.01
2026-06-16 15:13:43.901204,-246.77
2026-06-16 15:13:43.901204,-270.41
2026-06-16 15:13:43.916123,-296.92
2026-06-16 15:13:43.920221,-296.43
2026-06-16 15:13:43.931935,-221.32
2026-06-16 15:13:43.935394,-118.72
2026-06-16 15:13:43.948497,-78.33
2026-06-16 15:13:43.951515,-113.75
2026-06-16 15:13:43.964596,-83.33
2026-06-16 15:13:43.967382,12.6
2026-06-16 15:13:43.967382,120.99
2026-06-16 15:13:43.983431,172.13
2026-06-16 15:13:43.983431,125.5
2026-06-16 15:13:44.001174,55.22
2026-06-16 15:13:44.001174,78.82
2026-06-16 15:13:44.017575,221.71
2026-06-16 15:13:44.017575,314.13
2026-06-16 15:13:44.033570,268.78
2026-06-16 15:13:44.034288,215.7
2026-06-16 15:13:44.049170,335.01
2026-06-16 15:13:44.050468,538.31
2026-06-16 15:13:44.065459,606.26
2026-06-16 15:13:44.068129,493.78
2026-06-16 15:13:44.081290,410.72
2026-06-16 15:13:44.083851,505.18
2026-06-16 15:13:44.083851,691.7
2026-06-16 15:13:44.099827,732.02
2026-06-16 15:13:44.099827,545.28
2026-06-16 15:13:44.117633,359.48
2026-06-16 15:13:44.122774,402.46
2026-06-16 15:13:44.132982,588.5
2026-06-16 15:13:44.132982,583.57
2026-06-16 15:13:44.151113,346.82
2026-06-16 15:13:44.151113,188.87
2026-06-16 15:13:44.166504,320.26
2026-06-16 15:13:44.166846,490.8
2026-06-16 15:13:44.182100,428.64
2026-06-16 15:13:44.183615,206.61
2026-06-16 15:13:44.197795,87.17
2026-06-16 15:13:44.200156,142.45
2026-06-16 15:13:44.200156,247.21
2026-06-16 15:13:44.216263,189.26
2026-06-16 15:13:44.216263,-29.59
2026-06-16 15:13:44.232905,-227.45
2026-06-16 15:13:44.232905,-209.4
2026-06-16 15:13:44.250129,4.58
2026-06-16 15:13:44.250129,132.91
2026-06-16 15:13:44.266701,57.62
2026-06-16 15:13:44.266701,-96.89
2026-06-16 15:13:44.283538,-140.19
2026-06-16 15:13:44.283538,-71.83
2026-06-16 15:13:44.299259,-2.81
2026-06-16 15:13:44.300522,-16.73
2026-06-16 15:13:44.314839,-145.0
2026-06-16 15:13:44.316854,-302.48
2026-06-16 15:13:44.331164,-398.48
2026-06-16 15:13:44.333952,-453.2
2026-06-16 15:13:44.333952,-441.98
2026-06-16 15:13:44.350407,-478.57
2026-06-16 15:13:44.350407,-555.78
2026-06-16 15:13:44.367475,-609.72
2026-06-16 15:13:44.367475,-667.36
2026-06-16 15:13:44.383876,-709.8
2026-06-16 15:13:44.383876,-757.99
2026-06-16 15:13:44.401145,-779.07
2026-06-16 15:13:44.401145,-758.26
2026-06-16 15:13:44.416096,-683.83
2026-06-16 15:13:44.417111,-585.88
2026-06-16 15:13:44.432921,-545.14
2026-06-16 15:13:44.435818,-506.6
2026-06-16 15:13:44.448242,-459.29
2026-06-16 15:13:44.450945,-469.93
2026-06-16 15:13:44.464415,-533.25
2026-06-16 15:13:44.467352,-596.25
2026-06-16 15:13:44.467352,-550.48
2026-06-16 15:13:44.483402,-469.13
2026-06-16 15:13:44.483402,-429.97
2026-06-16 15:13:44.501171,-421.85
2026-06-16 15:13:44.501171,-427.7
2026-06-16 15:13:44.516938,-401.68
2026-06-16 15:13:44.516938,-385.74
2026-06-16 15:13:44.533655,-347.0
2026-06-16 15:13:44.534474,-300.49
2026-06-16 15:13:44.549239,-296.99
2026-06-16 15:13:44.551069,-345.26
2026-06-16 15:13:44.564943,-355.47
2026-06-16 15:13:44.567939,-226.34
2026-06-16 15:13:44.581250,-55.06
2026-06-16 15:13:44.583718,-34.88
2026-06-16 15:13:44.583718,-161.07
2026-06-16 15:13:44.600156,-320.46
2026-06-16 15:13:44.600156,-329.81
2026-06-16 15:13:44.617629,-194.83
2026-06-16 15:13:44.627173,-69.48
2026-06-16 15:13:44.633592,-20.38
2026-06-16 15:13:44.641401,-40.17
2026-06-16 15:13:44.649363,-77.78
2026-06-16 15:13:44.649363,-137.09
2026-06-16 15:13:44.666134,-187.15
2026-06-16 15:13:44.666134,-165.32
2026-06-16 15:13:44.681950,-95.84
2026-06-16 15:13:44.684482,-32.68
2026-06-16 15:13:44.697529,10.27
2026-06-16 15:13:44.699490,31.11
2026-06-16 15:13:44.699490,50.86
2026-06-16 15:13:44.716084,24.73
2026-06-16 15:13:44.716084,-27.13
2026-06-16 15:13:44.732952,-23.01
2026-06-16 15:13:44.732952,13.92
2026-06-16 15:13:44.749221,51.66
2026-06-16 15:13:44.749221,32.49
2026-06-16 15:13:44.767010,-14.43
2026-06-16 15:13:44.767010,-3.42
2026-06-16 15:13:44.782863,25.46
2026-06-16 15:13:44.784159,8.41
2026-06-16 15:13:44.799127,-36.4
2026-06-16 15:13:44.799127,-66.07
2026-06-16 15:13:44.814221,-69.72
2026-06-16 15:13:44.816150,-104.2
2026-06-16 15:13:44.816150,-135.52
2026-06-16 15:13:44.832397,-179.61
2026-06-16 15:13:44.832397,-200.61
2026-06-16 15:13:44.849434,-169.75
2026-06-16 15:13:44.849434,-65.42
2026-06-16 15:13:44.865927,87.14
2026-06-16 15:13:44.865927,170.28
2026-06-16 15:13:44.884334,167.44
2026-06-16 15:13:44.884334,163.62
2026-06-16 15:13:44.899471,219.52
2026-06-16 15:13:44.899471,329.86
2026-06-16 15:13:44.916093,364.03
2026-06-16 15:13:44.916093,241.81
2026-06-16 15:13:44.931805,73.44
2026-06-16 15:13:44.932585,-11.5
2026-06-16 15:13:44.947394,29.35
2026-06-16 15:13:44.949315,58.06
2026-06-16 15:13:44.949315,14.99
2026-06-16 15:13:44.965903,-54.74
2026-06-16 15:13:44.965903,-49.49
2026-06-16 15:13:44.984690,42.3
2026-06-16 15:13:44.984690,100.79
2026-06-16 15:13:45.001272,95.31
2026-06-16 15:13:45.009312,35.14
2026-06-16 15:13:45.015854,-38.67
2026-06-16 15:13:45.015854,-50.42
2026-06-16 15:13:45.032469,43.37
2026-06-16 15:13:45.032469,153.59
2026-06-16 15:13:45.049198,142.88
2026-06-16 15:13:45.049198,2.86
2026-06-16 15:13:45.064207,-74.76
2026-06-16 15:13:45.072220,-30.61
2026-06-16 15:13:45.080635,58.1
2026-06-16 15:13:45.085071,65.77
2026-06-16 15:13:45.085071,15.69
2026-06-16 15:13:45.099060,-0.31
2026-06-16 15:13:45.099060,28.55
2026-06-16 15:13:45.116516,61.24
2026-06-16 15:13:45.116516,60.93
2026-06-16 15:13:45.133815,6.9
2026-06-16 15:13:45.142058,-20.0
2026-06-16 15:13:45.150027,-6.96
2026-06-16 15:13:45.153819,-18.87
2026-06-16 15:13:45.166134,-82.46
2026-06-16 15:13:45.166134,-152.69
2026-06-16 15:13:45.181801,-156.9
2026-06-16 15:13:45.184987,-137.21
2026-06-16 15:13:45.197382,-140.5
2026-06-16 15:13:45.200448,-200.5
2026-06-16 15:13:45.214096,-249.24
2026-06-16 15:13:45.216530,-199.24
2026-06-16 15:13:45.216530,-110.69
2026-06-16 15:13:45.232804,-59.39
2026-06-16 15:13:45.232804,-70.04
2026-06-16 15:13:45.250158,-122.42
2026-06-16 15:13:45.250158,-168.57
2026-06-16 15:13:45.267267,-188.63
2026-06-16 15:13:45.267267,-155.84
2026-06-16 15:13:45.283992,-115.26
2026-06-16 15:13:45.285203,-157.47
2026-06-16 15:13:45.298854,-279.07
2026-06-16 15:13:45.300618,-407.02
2026-06-16 15:13:45.314608,-385.09
2026-06-16 15:13:45.316619,-254.81
2026-06-16 15:13:45.331143,-197.82
2026-06-16 15:13:45.334027,-266.48
2026-06-16 15:13:45.334027,-316.88
2026-06-16 15:13:45.349405,-240.67
2026-06-16 15:13:45.349405,-103.16
2026-06-16 15:13:45.366799,-20.06
2026-06-16 15:13:45.366799,-56.77
2026-06-16 15:13:45.384027,-170.91
2026-06-16 15:13:45.385694,-234.73
2026-06-16 15:13:45.399904,-198.73
2026-06-16 15:13:45.399904,-106.2
2026-06-16 15:13:45.416371,-86.76
2026-06-16 15:13:45.416698,-217.67
2026-06-16 15:13:45.432126,-318.07
2026-06-16 15:13:45.433026,-263.75
2026-06-16 15:13:45.448091,-121.14
2026-06-16 15:13:45.450762,-77.75
2026-06-16 15:13:45.450762,-171.88
2026-06-16 15:13:45.466534,-272.51
2026-06-16 15:13:45.466534,-235.33
2026-06-16 15:13:45.485711,-90.87
2026-06-16 15:13:45.485711,-8.83
2026-06-16 15:13:45.499700,-25.7
2026-06-16 15:13:45.499700,-75.32
2026-06-16 15:13:45.516565,-89.87
2026-06-16 15:13:45.516565,-29.72
2026-06-16 15:13:45.532624,49.03
2026-06-16 15:13:45.532624,14.96
2026-06-16 15:13:45.549326,-83.62
2026-06-16 15:13:45.549831,-159.82
2026-06-16 15:13:45.564992,-151.06
2026-06-16 15:13:45.565969,-80.65
2026-06-16 15:13:45.580760,15.27
2026-06-16 15:13:45.585929,64.94
2026-06-16 15:13:45.585929,39.74
2026-06-16 15:13:45.599248,-12.2
2026-06-16 15:13:45.599248,-26.07
2026-06-16 15:13:45.615674,6.9
2026-06-16 15:13:45.615674,14.83
2026-06-16 15:13:45.632532,-56.89
2026-06-16 15:13:45.632532,-117.3
2026-06-16 15:13:45.649258,-60.0
2026-06-16 15:13:45.658392,58.71
2026-06-16 15:13:45.665637,122.09
2026-06-16 15:13:45.671101,73.72
2026-06-16 15:13:45.681757,-7.24
2026-06-16 15:13:45.686024,-38.05
2026-06-16 15:13:45.697214,27.81
2026-06-16 15:13:45.699214,125.18
2026-06-16 15:13:45.699214,193.21
2026-06-16 15:13:45.715770,274.83
2026-06-16 15:13:45.715770,394.85
2026-06-16 15:13:45.732471,413.77
2026-06-16 15:13:45.732471,219.66
2026-06-16 15:13:45.749123,-78.94
2026-06-16 15:13:45.749123,-224.81
2026-06-16 15:13:45.766921,-113.24
2026-06-16 15:13:45.766921,75.38
2026-06-16 15:13:45.782658,126.74
2026-06-16 15:13:45.786207,69.39
2026-06-16 15:13:45.798452,60.09
2026-06-16 15:13:45.800009,99.59
2026-06-16 15:13:45.814836,168.74
2026-06-16 15:13:45.815788,186.8
2026-06-16 15:13:45.830587,116.22
2026-06-16 15:13:45.832559,59.92
2026-06-16 15:13:45.832559,145.19
2026-06-16 15:13:45.849166,272.82
2026-06-16 15:13:45.849166,266.48
2026-06-16 15:13:45.866219,134.8
2026-06-16 15:13:45.866219,71.44
2026-06-16 15:13:45.883594,183.52
2026-06-16 15:13:45.886358,312.95
2026-06-16 15:13:45.899839,239.74
2026-06-16 15:13:45.899839,51.49
2026-06-16 15:13:45.915501,6.45
2026-06-16 15:13:45.915501,113.88
2026-06-16 15:13:45.931589,235.7
2026-06-16 15:13:45.932438,229.54
2026-06-16 15:13:45.947126,151.78
2026-06-16 15:13:45.948887,116.2
2026-06-16 15:13:45.948887,173.33
2026-06-16 15:13:45.965796,253.05
2026-06-16 15:13:45.965796,267.71
2026-06-16 15:13:45.986451,240.5
2026-06-16 15:13:45.986451,225.37
2026-06-16 15:13:45.999107,229.22
2026-06-16 15:13:45.999107,156.43
2026-06-16 15:13:46.016504,28.29
2026-06-16 15:13:46.016504,-19.61
2026-06-16 15:13:46.032686,13.32
2026-06-16 15:13:46.032686,-1.67
2026-06-16 15:13:46.048816,-87.23
2026-06-16 15:13:46.048816,-129.58
2026-06-16 15:13:46.064904,-24.46
2026-06-16 15:13:46.065907,81.13
2026-06-16 15:13:46.080458,41.92
2026-06-16 15:13:46.086878,-62.76
2026-06-16 15:13:46.086878,-48.52
2026-06-16 15:13:46.099011,49.23
2026-06-16 15:13:46.099011,92.77
2026-06-16 15:13:46.115504,77.38
2026-06-16 15:13:46.115504,43.16
2026-06-16 15:13:46.132337,18.07
2026-06-16 15:13:46.132337,6.04
2026-06-16 15:13:46.149176,20.93
2026-06-16 15:13:46.149176,87.5
2026-06-16 15:13:46.165831,161.68
2026-06-16 15:13:46.174117,136.99
2026-06-16 15:13:46.181845,11.93
2026-06-16 15:13:46.187102,-60.76
2026-06-16 15:13:46.197154,15.16
2026-06-16 15:13:46.199130,93.69
2026-06-16 15:13:46.199130,73.32
2026-06-16 15:13:46.215686,-15.6
2026-06-16 15:13:46.215686,-35.42
2026-06-16 15:13:46.232519,40.38
2026-06-16 15:13:46.232519,101.87
2026-06-16 15:13:46.249150,97.38
2026-06-16 15:13:46.249150,24.25
2026-06-16 15:13:46.265451,-30.59
2026-06-16 15:13:46.265451,-21.48
2026-06-16 15:13:46.282957,66.18
2026-06-16 15:13:46.287082,158.39
2026-06-16 15:13:46.298354,110.83
2026-06-16 15:13:46.299695,-23.05
2026-06-16 15:13:46.314745,-67.71
2026-06-16 15:13:46.315687,14.22
2026-06-16 15:13:46.330598,123.59
2026-06-16 15:13:46.334677,124.97
2026-06-16 15:13:46.334677,72.6
2026-06-16 15:13:46.349022,-5.37
2026-06-16 15:13:46.349022,-65.04
2026-06-16 15:13:46.366691,-88.6
2026-06-16 15:13:46.366691,-60.3
2026-06-16 15:13:46.385412,29.56
2026-06-16 15:13:46.393232,36.37
2026-06-16 15:13:46.401229,-52.36
2026-06-16 15:13:46.403254,-122.75
2026-06-16 15:13:46.415348,-102.23
2026-06-16 15:13:46.415348,14.69
2026-06-16 15:13:46.431442,98.2
2026-06-16 15:13:46.432078,63.88
2026-06-16 15:13:46.447079,-58.83
2026-06-16 15:13:46.449057,-131.17
2026-06-16 15:13:46.463574,-43.95
2026-06-16 15:13:46.466372,82.64
2026-06-16 15:13:46.466372,84.21
2026-06-16 15:13:46.483242,-70.43
2026-06-16 15:13:46.487238,-177.54
2026-06-16 15:13:46.499946,-72.18
2026-06-16 15:13:46.499946,89.37
2026-06-16 15:13:46.517379,132.71
2026-06-16 15:13:46.517379,16.62
2026-06-16 15:13:46.532782,-119.77
2026-06-16 15:13:46.532782,-96.29
2026-06-16 15:13:46.548457,66.38
2026-06-16 15:13:46.549744,176.49
2026-06-16 15:13:46.564553,98.0
2026-06-16 15:13:46.567351,-81.59
2026-06-16 15:13:46.581032,-150.83
2026-06-16 15:13:46.587902,-58.54
2026-06-16 15:13:46.587902,68.12
2026-06-16 15:13:46.599152,12.06
2026-06-16 15:13:46.599152,-147.2
2026-06-16 15:13:46.616279,-221.09
2026-06-16 15:13:46.616279,-170.24
2026-06-16 15:13:46.633190,-42.03
2026-06-16 15:13:46.633190,29.82
2026-06-16 15:13:46.650152,-8.14
2026-06-16 15:13:46.655538,-70.78
2026-06-16 15:13:46.666373,-69.43
2026-06-16 15:13:46.668978,9.52
2026-06-16 15:13:46.682400,100.02
2026-06-16 15:13:46.688010,150.26
2026-06-16 15:13:46.697418,105.73
2026-06-16 15:13:46.699942,15.65
2026-06-16 15:13:46.713940,7.62
2026-06-16 15:13:46.716490,76.23
2026-06-16 15:13:46.716490,128.59
2026-06-16 15:13:46.733047,0.58
2026-06-16 15:13:46.733047,-208.37
2026-06-16 15:13:46.749549,-249.12
2026-06-16 15:13:46.749549,-147.38
2026-06-16 15:13:46.766914,-70.03
2026-06-16 15:13:46.766914,-73.66
2026-06-16 15:13:46.783343,-44.43
2026-06-16 15:13:46.788403,21.46
2026-06-16 15:13:46.799445,72.1
2026-06-16 15:13:46.800303,67.76
2026-06-16 15:13:46.815093,48.51
2026-06-16 15:13:46.816780,97.03
2026-06-16 15:13:46.830971,137.34
2026-06-16 15:13:46.833996,105.8
2026-06-16 15:13:46.847163,57.52
2026-06-16 15:13:46.849870,11.46
2026-06-16 15:13:46.849870,52.2
2026-06-16 15:13:46.866112,141.48
2026-06-16 15:13:46.866112,139.78
2026-06-16 15:13:46.883200,28.64
2026-06-16 15:13:46.888808,-62.05
2026-06-16 15:13:46.900163,-17.96
2026-06-16 15:13:46.905543,78.65
2026-06-16 15:13:46.916663,169.79
2026-06-16 15:13:46.916663,162.97
2026-06-16 15:13:46.931883,94.5
2026-06-16 15:13:46.933731,105.97
2026-06-16 15:13:46.947791,205.93
2026-06-16 15:13:46.950498,322.31
2026-06-16 15:13:46.964077,378.41
2026-06-16 15:13:46.967103,333.73
2026-06-16 15:13:46.967103,259.43
2026-06-16 15:13:46.983215,199.43
2026-06-16 15:13:46.988976,217.33
2026-06-16 15:13:47.000102,230.18
2026-06-16 15:13:47.000102,161.37
2026-06-16 15:13:47.016624,31.21
2026-06-16 15:13:47.016624,-81.38
2026-06-16 15:13:47.033136,-52.12
2026-06-16 15:13:47.038300,-7.08
2026-06-16 15:13:47.049358,-63.76
2026-06-16 15:13:47.051737,-144.04
2026-06-16 15:13:47.065015,-140.33
2026-06-16 15:13:47.072004,-38.14
2026-06-16 15:13:47.080554,72.49
2026-06-16 15:13:47.082567,122.88
2026-06-16 15:13:47.089161,98.38
2026-06-16 15:13:47.099042,38.19
2026-06-16 15:13:47.099042,35.01
2026-06-16 15:13:47.115639,78.62
2026-06-16 15:13:47.115639,120.02
2026-06-16 15:13:47.132596,88.57
2026-06-16 15:13:47.132596,24.45
2026-06-16 15:13:47.149367,-1.54
2026-06-16 15:13:47.149367,-5.52
2026-06-16 15:13:47.166361,45.26
2026-06-16 15:13:47.166361,84.83
2026-06-16 15:13:47.182234,30.68
2026-06-16 15:13:47.189180,-115.74
2026-06-16 15:13:47.197962,-187.8
2026-06-16 15:13:47.205333,-126.17
2026-06-16 15:13:47.207613,-79.76
2026-06-16 15:13:47.215286,-88.32
2026-06-16 15:13:47.215286,-86.88
2026-06-16 15:13:47.232082,-14.81
2026-06-16 15:13:47.232082,59.89
2026-06-16 15:13:47.248490,5.86
2026-06-16 15:13:47.248490,-59.84
2026-06-16 15:13:47.265115,-27.7
2026-06-16 15:13:47.265115,53.03
2026-06-16 15:13:47.281324,93.56
2026-06-16 15:13:47.289611,10.51
2026-06-16 15:13:47.298630,-103.97
2026-06-16 15:13:47.298630,-135.29
2026-06-16 15:13:47.314653,-2.28
2026-06-16 15:13:47.320742,155.94
2026-06-16 15:13:47.330279,186.01
2026-06-16 15:13:47.332824,111.45
2026-06-16 15:13:47.332824,29.3
2026-06-16 15:13:47.353566,43.08
2026-06-16 15:13:47.353566,147.34
2026-06-16 15:13:47.366414,191.38
2026-06-16 15:13:47.366414,98.88
2026-06-16 15:13:47.384786,-26.98
2026-06-16 15:13:47.390183,-27.84
2026-06-16 15:13:47.399530,96.67
2026-06-16 15:13:47.401879,159.87
2026-06-16 15:13:47.416469,70.51
2026-06-16 15:13:47.416469,-64.16
2026-06-16 15:13:47.431952,-47.92
2026-06-16 15:13:47.438062,76.69
2026-06-16 15:13:47.447349,190.73
2026-06-16 15:13:47.450366,226.6
2026-06-16 15:13:47.463999,198.6
2026-06-16 15:13:47.467017,158.8
2026-06-16 15:13:47.467017,137.11
2026-06-16 15:13:47.483068,176.23
2026-06-16 15:13:47.490466,230.07
2026-06-16 15:13:47.499335,214.99
2026-06-16 15:13:47.499335,198.99
2026-06-16 15:13:47.516396,259.68
2026-06-16 15:13:47.516396,343.96
2026-06-16 15:13:47.533430,324.33
2026-06-16 15:13:47.538652,177.43
2026-06-16 15:13:47.549268,49.19
2026-06-16 15:13:47.549691,25.06
2026-06-16 15:13:47.564889,117.47
2026-06-16 15:13:47.567346,197.48
2026-06-16 15:13:47.580752,202.46
2026-06-16 15:13:47.583750,190.5
2026-06-16 15:13:47.590699,183.58
2026-06-16 15:13:47.598893,178.68
2026-06-16 15:13:47.598893,164.85
2026-06-16 15:13:47.615147,149.11
2026-06-16 15:13:47.615147,182.19
2026-06-16 15:13:47.632060,251.92
2026-06-16 15:13:47.632060,314.34
2026-06-16 15:13:47.648807,319.74
2026-06-16 15:13:47.648807,274.36
2026-06-16 15:13:47.665763,188.41
2026-06-16 15:13:47.665763,118.81
2026-06-16 15:13:47.681676,159.02
2026-06-16 15:13:47.685905,234.84
2026-06-16 15:13:47.697286,244.61
2026-06-16 15:13:47.700705,144.88
2026-06-16 15:13:47.713359,57.59
2026-06-16 15:13:47.720932,91.13
2026-06-16 15:13:47.721594,175.25
2026-06-16 15:13:47.732106,190.29
2026-06-16 15:13:47.732106,188.35
2026-06-16 15:13:47.749848,269.0
2026-06-16 15:13:47.749848,423.87
2026-06-16 15:13:47.766408,547.12
2026-06-16 15:13:47.766408,477.72
2026-06-16 15:13:47.782380,314.14
2026-06-16 15:13:47.791067,363.31
2026-06-16 15:13:47.799338,670.94
2026-06-16 15:13:47.800226,904.4
2026-06-16 15:13:47.814928,740.67
2026-06-16 15:13:47.816880,353.9
2026-06-16 15:13:47.830761,171.04
2026-06-16 15:13:47.833398,211.97
2026-06-16 15:13:47.846819,226.83
2026-06-16 15:13:47.849802,127.19
2026-06-16 15:13:47.849802,83.77
2026-06-16 15:13:47.866172,81.36
2026-06-16 15:13:47.866172,50.11
2026-06-16 15:13:47.882456,5.08
2026-06-16 15:13:47.891442,-62.6
2026-06-16 15:13:47.899866,-137.91
2026-06-16 15:13:47.901844,-167.07
2026-06-16 15:13:47.915665,-85.64
2026-06-16 15:13:47.915665,-4.61
2026-06-16 15:13:47.931379,-89.17
2026-06-16 15:13:47.932729,-305.63
2026-06-16 15:13:47.947089,-361.81
2026-06-16 15:13:47.949106,-208.76
2026-06-16 15:13:47.963895,-77.37
2026-06-16 15:13:47.965938,-131.71
2026-06-16 15:13:47.965938,-256.42
2026-06-16 15:13:47.982426,-304.89
2026-06-16 15:13:47.992100,-256.6
2026-06-16 15:13:47.998522,-220.49
2026-06-16 15:13:47.998522,-215.41
2026-06-16 15:13:48.017052,-225.28
2026-06-16 15:13:48.017052,-222.16
2026-06-16 15:13:48.033285,-243.94
2026-06-16 15:13:48.033285,-296.45
2026-06-16 15:13:48.048292,-279.05
2026-06-16 15:13:48.049505,-181.14
2026-06-16 15:13:48.065068,-28.0
2026-06-16 15:13:48.067041,-19.9
2026-06-16 15:13:48.080413,-241.68
2026-06-16 15:13:48.082774,-421.56
2026-06-16 15:13:48.096625,-311.0
2026-06-16 15:13:48.099358,-53.73
2026-06-16 15:13:48.099358,53.0
2026-06-16 15:13:48.115105,-41.79
2026-06-16 15:13:48.115105,-130.13
2026-06-16 15:13:48.132010,-59.83
2026-06-16 15:13:48.132010,146.43
2026-06-16 15:13:48.149742,277.04
2026-06-16 15:13:48.149742,234.86
2026-06-16 15:13:48.166133,164.04
2026-06-16 15:13:48.166133,188.09
2026-06-16 15:13:48.181922,314.51
2026-06-16 15:13:48.181922,378.61
2026-06-16 15:13:48.197698,255.32
2026-06-16 15:13:48.198440,97.83
2026-06-16 15:13:48.213330,107.29
2026-06-16 15:13:48.215356,203.27
2026-06-16 15:13:48.227677,206.24
2026-06-16 15:13:48.233707,113.67
2026-06-16 15:13:48.233707,55.39
2026-06-16 15:13:48.248897,17.3
2026-06-16 15:13:48.248897,-103.18
2026-06-16 15:13:48.265469,-274.8
2026-06-16 15:13:48.265469,-369.94
2026-06-16 15:13:48.282265,-348.19
2026-06-16 15:13:48.282265,-324.56
2026-06-16 15:13:48.298902,-295.08
2026-06-16 15:13:48.298902,-246.84
2026-06-16 15:13:48.314769,-241.62
2026-06-16 15:13:48.316946,-306.09
2026-06-16 15:13:48.330649,-302.57
2026-06-16 15:13:48.333529,-199.56
2026-06-16 15:13:48.346923,-115.98
2026-06-16 15:13:48.349922,-146.24
2026-06-16 15:13:48.349922,-214.17
2026-06-16 15:13:48.368416,-118.57
2026-06-16 15:13:48.392120,65.1
2026-06-16 15:13:48.398074,65.77
2026-06-16 15:13:48.402091,-67.89
2026-06-16 15:13:48.404099,-103.37
2026-06-16 15:13:48.404099,27.49
2026-06-16 15:13:48.417996,135.81
2026-06-16 15:13:48.420011,50.56
2026-06-16 15:13:48.432111,-106.91
2026-06-16 15:13:48.432111,-176.02
2026-06-16 15:13:48.446928,-72.66
2026-06-16 15:13:48.449292,24.22
2026-06-16 15:13:48.463292,-13.71
2026-06-16 15:13:48.466314,-151.95
2026-06-16 15:13:48.466314,-248.7
2026-06-16 15:13:48.482960,-207.65
2026-06-16 15:13:48.493749,-171.79
2026-06-16 15:13:48.499642,-221.68
2026-06-16 15:13:48.499642,-229.52
2026-06-16 15:13:48.518495,-156.74
2026-06-16 15:13:48.518495,-136.05
2026-06-16 15:13:48.533233,-265.72
2026-06-16 15:13:48.533233,-399.71
2026-06-16 15:13:48.549009,-358.9
2026-06-16 15:13:48.552686,-234.72
2026-06-16 15:13:48.564768,-237.53
2026-06-16 15:13:48.566731,-378.63
2026-06-16 15:13:48.580295,-404.6
2026-06-16 15:13:48.584152,-246.36
2026-06-16 15:13:48.596542,-81.95
2026-06-16 15:13:48.601721,-56.66
2026-06-16 15:13:48.601721,-170.8
2026-06-16 15:13:48.616178,-303.28
2026-06-16 15:13:48.616178,-300.77
2026-06-16 15:13:48.632363,-209.71
2026-06-16 15:13:48.632363,-141.0
2026-06-16 15:13:48.648216,-150.25
2026-06-16 15:13:48.648216,-235.07
2026-06-16 15:13:48.665137,-307.52
2026-06-16 15:13:48.665137,-304.0
2026-06-16 15:13:48.681922,-177.11
2026-06-16 15:13:48.681922,-21.0
2026-06-16 15:13:48.697522,2.99
2026-06-16 15:13:48.698893,-122.4
2026-06-16 15:13:48.713144,-229.25
2026-06-16 15:13:48.715257,-184.32
2026-06-16 15:13:48.715257,-65.99
2026-06-16 15:13:48.734193,-38.8
2026-06-16 15:13:48.740585,-72.43
2026-06-16 15:13:48.748499,-124.8
2026-06-16 15:13:48.748499,-194.82
2026-06-16 15:13:48.765094,-271.46
2026-06-16 15:13:48.765094,-304.93
2026-06-16 15:13:48.781730,-243.7
