PC_Timestamp,ECG
2026-06-18 11:35:38.064228,-76.53
2026-06-18 11:35:38.067339,-60.23
2026-06-18 11:35:38.067339,-39.03
2026-06-18 11:35:38.084695,-9.98
2026-06-18 11:35:38.084695,1.01
2026-06-18 11:35:38.100566,-29.84
2026-06-18 11:35:38.100566,-67.5
2026-06-18 11:35:38.117578,-84.08
2026-06-18 11:35:38.117578,-74.7
2026-06-18 11:35:38.134290,-92.24
2026-06-18 11:35:38.139426,-106.7
2026-06-18 11:35:38.149925,-82.29
2026-06-18 11:35:38.152560,-21.18
2026-06-18 11:35:38.165647,36.63
2026-06-18 11:35:38.167971,53.37
2026-06-18 11:35:38.167971,33.2
2026-06-18 11:35:38.184663,33.03
2026-06-18 11:35:38.184663,49.78
2026-06-18 11:35:38.203836,78.39
2026-06-18 11:35:38.203836,97.9
2026-06-18 11:35:38.220605,84.47
2026-06-18 11:35:38.228653,45.25
2026-06-18 11:35:38.235615,1.24
2026-06-18 11:35:38.243700,-28.62
2026-06-18 11:35:38.251801,-50.36
2026-06-18 11:35:38.259798,-69.02
2026-06-18 11:35:38.267159,-112.45
2026-06-18 11:35:38.275038,-181.54
2026-06-18 11:35:38.283493,-251.28
2026-06-18 11:35:38.291176,-299.77
2026-06-18 11:35:38.298771,-323.15
2026-06-18 11:35:38.306544,-335.46
2026-06-18 11:35:38.314595,-364.63
2026-06-18 11:35:38.322391,-401.61
2026-06-18 11:35:38.326504,-446.37
2026-06-18 11:35:38.337950,-484.93
2026-06-18 11:35:38.339032,-473.55
2026-06-18 11:35:38.350952,-408.5
2026-06-18 11:35:38.350952,-377.6
2026-06-18 11:35:38.367414,-461.28
2026-06-18 11:35:38.372783,-600.27
2026-06-18 11:35:38.385033,-703.73
2026-06-18 11:35:38.393062,-731.06
2026-06-18 11:35:38.399948,-740.34
2026-06-18 11:35:38.408568,-762.5
2026-06-18 11:35:38.416830,-787.55
2026-06-18 11:35:38.423036,-786.59
2026-06-18 11:35:38.432202,-784.65
2026-06-18 11:35:38.438799,-787.69
2026-06-18 11:35:38.438799,-767.83
2026-06-18 11:35:38.450936,-743.1
2026-06-18 11:35:38.450936,-710.53
2026-06-18 11:35:38.467521,-697.03
2026-06-18 11:35:38.467521,-699.51
2026-06-18 11:35:38.483890,-720.89
2026-06-18 11:35:38.483890,-762.06
2026-06-18 11:35:38.500540,-818.94
2026-06-18 11:35:38.500540,-869.58
2026-06-18 11:35:38.517219,-920.95
2026-06-18 11:35:38.525216,-985.99
2026-06-18 11:35:38.533218,-1057.68
2026-06-18 11:35:38.541215,-1101.14
2026-06-18 11:35:38.548639,-1116.53
2026-06-18 11:35:38.550234,-1136.82
2026-06-18 11:35:38.550234,-1174.92
2026-06-18 11:35:38.566923,-1243.67
2026-06-18 11:35:38.566923,-1287.2
2026-06-18 11:35:38.583698,-1310.61
2026-06-18 11:35:38.583698,-1349.83
2026-06-18 11:35:38.600651,-1420.69
2026-06-18 11:35:38.600651,-1524.03
2026-06-18 11:35:38.617350,-1633.82
2026-06-18 11:35:38.626537,-1710.23
2026-06-18 11:35:38.634104,-1739.49
2026-06-18 11:35:38.638109,-1780.54
2026-06-18 11:35:38.650758,-1851.24
2026-06-18 11:35:38.650758,-1930.54
2026-06-18 11:35:38.665443,-2040.28
2026-06-18 11:35:38.667292,-2178.34
2026-06-18 11:35:38.667292,-2258.98
2026-06-18 11:35:38.683770,-2201.92
2026-06-18 11:35:38.683770,-2099.37
2026-06-18 11:35:38.700524,-2082.9
2026-06-18 11:35:38.700524,-2180.94
2026-06-18 11:35:38.717061,-2222.77
2026-06-18 11:35:38.727688,-2131.07
2026-06-18 11:35:38.736110,-2042.8
2026-06-18 11:35:38.736110,-2029.6
2026-06-18 11:35:38.751793,-2013.48
2026-06-18 11:35:38.759787,-1885.01
2026-06-18 11:35:38.767119,-1737.28
2026-06-18 11:35:38.775196,-1686.8
2026-06-18 11:35:38.783163,-1691.3
2026-06-18 11:35:38.783931,-1621.16
2026-06-18 11:35:38.798718,-1404.1
2026-06-18 11:35:38.800660,-1168.23
2026-06-18 11:35:38.800660,-997.22
2026-06-18 11:35:38.817771,-830.05
2026-06-18 11:35:38.817771,-589.09
2026-06-18 11:35:38.837114,-343.36
2026-06-18 11:35:38.837114,-159.56
2026-06-18 11:35:38.850721,-43.34
2026-06-18 11:35:38.850721,58.36
2026-06-18 11:35:38.867251,168.52
2026-06-18 11:35:38.867251,303.99
2026-06-18 11:35:38.883944,434.8
2026-06-18 11:35:38.883944,525.16
2026-06-18 11:35:38.899697,573.28
2026-06-18 11:35:38.901026,659.97
2026-06-18 11:35:38.915639,808.9
2026-06-18 11:35:38.916650,941.17
2026-06-18 11:35:38.931330,979.25
2026-06-18 11:35:38.937853,993.26
2026-06-18 11:35:38.945830,1075.85
2026-06-18 11:35:38.950135,1161.02
2026-06-18 11:35:38.950135,1197.0
2026-06-18 11:35:38.966969,1235.79
2026-06-18 11:35:38.966969,1280.36
2026-06-18 11:35:38.983931,1302.81
2026-06-18 11:35:38.983931,1251.52
2026-06-18 11:35:39.000668,1158.7
2026-06-18 11:35:39.000668,1088.23
2026-06-18 11:35:39.016908,1038.02
2026-06-18 11:35:39.022285,1018.9
2026-06-18 11:35:39.033119,989.92
2026-06-18 11:35:39.037100,976.02
2026-06-18 11:35:39.048488,951.24
2026-06-18 11:35:39.050218,945.49
2026-06-18 11:35:39.050218,971.6
2026-06-18 11:35:39.072058,1016.5
2026-06-18 11:35:39.077067,1060.17
2026-06-18 11:35:39.084206,1073.77
2026-06-18 11:35:39.084206,1056.46
2026-06-18 11:35:39.100250,1038.25
2026-06-18 11:35:39.100250,1023.11
2026-06-18 11:35:39.116810,1028.94
2026-06-18 11:35:39.116810,1041.7
2026-06-18 11:35:39.134498,1007.64
2026-06-18 11:35:39.136950,935.93
2026-06-18 11:35:39.150284,875.53
2026-06-18 11:35:39.150284,864.19
2026-06-18 11:35:39.165242,874.8
2026-06-18 11:35:39.173558,862.46
2026-06-18 11:35:39.181612,798.45
2026-06-18 11:35:39.185764,757.64
2026-06-18 11:35:39.185764,767.78
2026-06-18 11:35:39.201240,789.81
2026-06-18 11:35:39.201240,785.87
2026-06-18 11:35:39.217331,747.11
2026-06-18 11:35:39.227249,683.68
2026-06-18 11:35:39.233957,628.52
2026-06-18 11:35:39.233957,613.43
2026-06-18 11:35:39.250728,636.24
2026-06-18 11:35:39.250728,665.89
2026-06-18 11:35:39.267386,642.66
2026-06-18 11:35:39.275008,556.86
2026-06-18 11:35:39.283213,488.41
2026-06-18 11:35:39.290255,515.82
2026-06-18 11:35:39.298626,556.02
2026-06-18 11:35:39.300637,501.5
2026-06-18 11:35:39.300637,347.76
2026-06-18 11:35:39.316565,225.62
2026-06-18 11:35:39.316565,213.55
2026-06-18 11:35:39.337244,267.21
2026-06-18 11:35:39.337244,297.71
2026-06-18 11:35:39.353319,259.41
2026-06-18 11:35:39.353319,105.87
2026-06-18 11:35:39.367910,-160.32
2026-06-18 11:35:39.367910,-316.73
2026-06-18 11:35:39.384951,-148.98
2026-06-18 11:35:39.392364,249.77
2026-06-18 11:35:39.400211,561.94
2026-06-18 11:35:39.404363,711.37
2026-06-18 11:35:39.415337,776.46
2026-06-18 11:35:39.417857,801.44
2026-06-18 11:35:39.432420,798.43
2026-06-18 11:35:39.437142,769.56
2026-06-18 11:35:39.446753,741.83
2026-06-18 11:35:39.452671,738.12
2026-06-18 11:35:39.460205,729.46
2026-06-18 11:35:39.467236,762.62
2026-06-18 11:35:39.467236,809.56
2026-06-18 11:35:39.483860,792.57
2026-06-18 11:35:39.483860,710.0
2026-06-18 11:35:39.501422,651.73
2026-06-18 11:35:39.509546,692.25
2026-06-18 11:35:39.517741,733.56
2026-06-18 11:35:39.517741,739.85
2026-06-18 11:35:39.532859,707.29
2026-06-18 11:35:39.533803,673.91
2026-06-18 11:35:39.548659,624.77
2026-06-18 11:35:39.550665,556.97
2026-06-18 11:35:39.550665,480.55
2026-06-18 11:35:39.567173,390.59
2026-06-18 11:35:39.567173,299.09
2026-06-18 11:35:39.583869,169.24
2026-06-18 11:35:39.583869,132.57
2026-06-18 11:35:39.600488,72.21
2026-06-18 11:35:39.600488,-64.47
2026-06-18 11:35:39.617111,-212.4
2026-06-18 11:35:39.623628,-555.61
2026-06-18 11:35:39.634435,-887.15
2026-06-18 11:35:39.637071,-1184.2
2026-06-18 11:35:39.650343,-1526.53
2026-06-18 11:35:39.650343,-1928.84
2026-06-18 11:35:39.666238,-2439.58
2026-06-18 11:35:39.667541,-2717.92
2026-06-18 11:35:39.681927,-2620.75
2026-06-18 11:35:39.684382,-2223.58
2026-06-18 11:35:39.684382,-1930.87
2026-06-18 11:35:39.700521,-1908.28
2026-06-18 11:35:39.700521,-1891.78
2026-06-18 11:35:39.718278,-1805.7
2026-06-18 11:35:39.718278,-1664.34
2026-06-18 11:35:39.735780,-1486.87
2026-06-18 11:35:39.736830,-1292.37
2026-06-18 11:35:39.750551,-1201.34
2026-06-18 11:35:39.750551,-1071.95
2026-06-18 11:35:39.767286,-809.88
2026-06-18 11:35:39.767286,-325.25
2026-06-18 11:35:39.782842,291.29
2026-06-18 11:35:39.790798,565.45
2026-06-18 11:35:39.799025,551.68
2026-06-18 11:35:39.806121,239.47
2026-06-18 11:35:39.814189,-98.03
2026-06-18 11:35:39.822053,-459.72
2026-06-18 11:35:39.826703,-940.0
2026-06-18 11:35:39.836925,-1221.86
2026-06-18 11:35:39.841832,-1575.94
2026-06-18 11:35:39.850369,-1884.47
2026-06-18 11:35:39.850369,-2202.4
2026-06-18 11:35:39.867074,-2502.83
2026-06-18 11:35:39.867074,-2449.52
2026-06-18 11:35:39.883783,-2211.41
2026-06-18 11:35:39.883783,-1878.96
2026-06-18 11:35:39.900253,-1733.25
2026-06-18 11:35:39.900253,-1671.85
2026-06-18 11:35:39.916125,-1502.3
2026-06-18 11:35:39.923586,-1344.55
2026-06-18 11:35:39.931361,-1150.76
2026-06-18 11:35:39.936357,-987.8
2026-06-18 11:35:39.936357,-835.6
2026-06-18 11:35:39.951027,-700.08
2026-06-18 11:35:39.960303,-745.34
2026-06-18 11:35:39.970862,-829.17
2026-06-18 11:35:39.971964,-675.78
2026-06-18 11:35:39.983699,-243.55
2026-06-18 11:35:39.983699,235.27
2026-06-18 11:35:40.000349,485.83
2026-06-18 11:35:40.000349,651.55
2026-06-18 11:35:40.017016,849.28
2026-06-18 11:35:40.018072,1127.62
2026-06-18 11:35:40.032741,1513.01
2026-06-18 11:35:40.040788,1813.9
2026-06-18 11:35:40.048542,2039.65
2026-06-18 11:35:40.051080,2182.68
2026-06-18 11:35:40.051080,2193.66
2026-06-18 11:35:40.067684,2118.01
2026-06-18 11:35:40.067684,1982.05
2026-06-18 11:35:40.083624,1920.4
2026-06-18 11:35:40.083624,1908.81
2026-06-18 11:35:40.101172,1937.08
2026-06-18 11:35:40.101172,1999.03
2026-06-18 11:35:40.117586,1998.99
2026-06-18 11:35:40.117586,2035.76
2026-06-18 11:35:40.134748,2089.26
2026-06-18 11:35:40.142768,2002.2
2026-06-18 11:35:40.150032,1871.79
2026-06-18 11:35:40.155009,1729.1
2026-06-18 11:35:40.166207,1381.16
2026-06-18 11:35:40.167880,749.4
2026-06-18 11:35:40.181899,142.68
2026-06-18 11:35:40.184794,7.64
2026-06-18 11:35:40.184794,99.14
2026-06-18 11:35:40.201577,50.89
2026-06-18 11:35:40.201577,-252.84
2026-06-18 11:35:40.217598,-476.45
2026-06-18 11:35:40.217598,-305.91
2026-06-18 11:35:40.235749,50.83
2026-06-18 11:35:40.237736,321.22
2026-06-18 11:35:40.251894,277.82
2026-06-18 11:35:40.258991,104.3
2026-06-18 11:35:40.266988,69.95
2026-06-18 11:35:40.275675,351.18
2026-06-18 11:35:40.283704,823.05
2026-06-18 11:35:40.290794,1135.34
2026-06-18 11:35:40.299175,1257.02
2026-06-18 11:35:40.306920,1403.97
2026-06-18 11:35:40.314924,1609.88
2026-06-18 11:35:40.317099,1725.21
2026-06-18 11:35:40.317099,1714.59
2026-06-18 11:35:40.337543,1709.01
2026-06-18 11:35:40.337543,1756.18
2026-06-18 11:35:40.349732,1856.85
2026-06-18 11:35:40.349732,1927.17
2026-06-18 11:35:40.367800,1931.46
2026-06-18 11:35:40.373177,1919.81
2026-06-18 11:35:40.384220,1927.13
2026-06-18 11:35:40.384220,1951.32
2026-06-18 11:35:40.400466,1957.49
2026-06-18 11:35:40.401260,1953.67
2026-06-18 11:35:40.415961,1950.87
2026-06-18 11:35:40.417916,1956.04
2026-06-18 11:35:40.431734,1906.46
2026-06-18 11:35:40.438150,1834.24
2026-06-18 11:35:40.448346,1764.37
2026-06-18 11:35:40.451120,1681.92
2026-06-18 11:35:40.457510,1614.81
2026-06-18 11:35:40.470996,1567.93
2026-06-18 11:35:40.479065,1529.24
2026-06-18 11:35:40.486263,1482.79
2026-06-18 11:35:40.494476,1434.58
2026-06-18 11:35:40.500279,1406.51
2026-06-18 11:35:40.500279,1418.39
2026-06-18 11:35:40.517199,1397.37
2026-06-18 11:35:40.520050,1326.7
2026-06-18 11:35:40.532562,1252.41
2026-06-18 11:35:40.538521,1269.03
2026-06-18 11:35:40.549206,1328.35
2026-06-18 11:35:40.550788,1366.49
2026-06-18 11:35:40.564905,1356.67
2026-06-18 11:35:40.567613,1315.06
2026-06-18 11:35:40.567613,1281.62
2026-06-18 11:35:40.583561,1274.22
2026-06-18 11:35:40.583561,1286.75
2026-06-18 11:35:40.603011,1269.37
2026-06-18 11:35:40.607688,1207.31
2026-06-18 11:35:40.617930,1139.58
2026-06-18 11:35:40.617930,1128.91
2026-06-18 11:35:40.634502,1106.35
2026-06-18 11:35:40.637937,1021.21
2026-06-18 11:35:40.650353,868.85
2026-06-18 11:35:40.650950,779.93
2026-06-18 11:35:40.665751,797.92
2026-06-18 11:35:40.666394,847.66
2026-06-18 11:35:40.681486,831.48
2026-06-18 11:35:40.683500,777.57
2026-06-18 11:35:40.683500,741.85
2026-06-18 11:35:40.705252,744.11
2026-06-18 11:35:40.712984,742.38
2026-06-18 11:35:40.717690,752.59
2026-06-18 11:35:40.717690,802.56
2026-06-18 11:35:40.735875,856.26
2026-06-18 11:35:40.737905,859.94
2026-06-18 11:35:40.750107,794.94
2026-06-18 11:35:40.750107,736.24
2026-06-18 11:35:40.767559,715.65
2026-06-18 11:35:40.767559,717.04
2026-06-18 11:35:40.783483,698.53
2026-06-18 11:35:40.789994,683.1
2026-06-18 11:35:40.798153,656.8
2026-06-18 11:35:40.806729,609.74
2026-06-18 11:35:40.815276,558.93
2026-06-18 11:35:40.822140,515.34
2026-06-18 11:35:40.827245,471.97
2026-06-18 11:35:40.836751,441.75
2026-06-18 11:35:40.836751,416.65
2026-06-18 11:35:40.850164,397.65
2026-06-18 11:35:40.850164,394.67
2026-06-18 11:35:40.867440,349.91
2026-06-18 11:35:40.867440,291.45
2026-06-18 11:35:40.883465,247.21
2026-06-18 11:35:40.883465,207.17
2026-06-18 11:35:40.900038,124.54
2026-06-18 11:35:40.900038,40.34
2026-06-18 11:35:40.915887,17.25
2026-06-18 11:35:40.923525,56.96
2026-06-18 11:35:40.931555,88.52
2026-06-18 11:35:40.936608,53.25
2026-06-18 11:35:40.936608,-8.71
2026-06-18 11:35:40.950772,-11.65
2026-06-18 11:35:40.950772,16.27
2026-06-18 11:35:40.967618,8.23
2026-06-18 11:35:40.967618,-23.65
2026-06-18 11:35:40.984087,-38.46
2026-06-18 11:35:40.992906,-23.34
2026-06-18 11:35:41.001125,-27.2
2026-06-18 11:35:41.001125,-70.85
2026-06-18 11:35:41.016689,-119.25
2026-06-18 11:35:41.018320,-119.65
2026-06-18 11:35:41.033597,-113.08
2026-06-18 11:35:41.041389,-117.49
2026-06-18 11:35:41.049163,-137.8
2026-06-18 11:35:41.051072,-173.92
2026-06-18 11:35:41.064788,-181.01
2026-06-18 11:35:41.071827,-127.37
2026-06-18 11:35:41.071827,-47.14
2026-06-18 11:35:41.083915,-41.92
2026-06-18 11:35:41.083915,-140.22
2026-06-18 11:35:41.100941,-238.02
2026-06-18 11:35:41.100941,-231.86
2026-06-18 11:35:41.118199,-149.11
2026-06-18 11:35:41.118199,-79.71
2026-06-18 11:35:41.134461,-69.36
2026-06-18 11:35:41.142327,-65.03
2026-06-18 11:35:41.150509,-64.71
2026-06-18 11:35:41.153688,-48.47
2026-06-18 11:35:41.165726,-29.32
2026-06-18 11:35:41.167163,-19.22
2026-06-18 11:35:41.181487,-2.21
2026-06-18 11:35:41.184456,22.68
2026-06-18 11:35:41.184456,28.53
2026-06-18 11:35:41.201031,-4.45
2026-06-18 11:35:41.201031,-97.95
2026-06-18 11:35:41.218473,-199.95
2026-06-18 11:35:41.218473,-251.68
2026-06-18 11:35:41.236389,-245.45
2026-06-18 11:35:41.238412,-196.46
2026-06-18 11:35:41.252213,-129.81
2026-06-18 11:35:41.259234,-49.56
2026-06-18 11:35:41.267373,-12.5
2026-06-18 11:35:41.275422,-22.39
2026-06-18 11:35:41.282700,-56.1
2026-06-18 11:35:41.283616,-71.74
2026-06-18 11:35:41.298091,-80.34
2026-06-18 11:35:41.300059,-107.8
2026-06-18 11:35:41.314877,-153.03
2026-06-18 11:35:41.318529,-184.1
2026-06-18 11:35:41.318529,-191.14
2026-06-18 11:35:41.337882,-192.18
2026-06-18 11:35:41.345741,-207.14
2026-06-18 11:35:41.352761,-211.08
2026-06-18 11:35:41.361206,-187.14
2026-06-18 11:35:41.368730,-179.24
2026-06-18 11:35:41.373833,-213.16
2026-06-18 11:35:41.383753,-280.75
2026-06-18 11:35:41.383753,-300.24
2026-06-18 11:35:41.400451,-260.93
2026-06-18 11:35:41.400451,-198.93
2026-06-18 11:35:41.415786,-210.87
2026-06-18 11:35:41.418848,-276.48
2026-06-18 11:35:41.431543,-319.88
2026-06-18 11:35:41.434576,-312.31
2026-06-18 11:35:41.448163,-314.73
2026-06-18 11:35:41.450986,-333.05
2026-06-18 11:35:41.450986,-349.3
2026-06-18 11:35:41.470653,-341.58
2026-06-18 11:35:41.478560,-340.87
2026-06-18 11:35:41.483971,-365.03
2026-06-18 11:35:41.483971,-388.08
2026-06-18 11:35:41.502148,-376.19
2026-06-18 11:35:41.508808,-323.57
2026-06-18 11:35:41.516832,-297.07
2026-06-18 11:35:41.518838,-301.56
2026-06-18 11:35:41.532434,-318.96
2026-06-18 11:35:41.536672,-309.4
2026-06-18 11:35:41.548206,-282.98
2026-06-18 11:35:41.550220,-255.69
2026-06-18 11:35:41.564761,-251.43
2026-06-18 11:35:41.567182,-270.07
2026-06-18 11:35:41.567182,-266.73
2026-06-18 11:35:41.587418,-249.48
2026-06-18 11:35:41.592430,-236.29
2026-06-18 11:35:41.602744,-227.15
2026-06-18 11:35:41.603709,-206.11
2026-06-18 11:35:41.619210,-197.12
2026-06-18 11:35:41.627172,-177.23
2026-06-18 11:35:41.634083,-169.38
2026-06-18 11:35:41.642736,-176.5
2026-06-18 11:35:41.650188,-205.46
2026-06-18 11:35:41.650188,-217.37
2026-06-18 11:35:41.665789,-183.45
2026-06-18 11:35:41.667526,-139.75
2026-06-18 11:35:41.681604,-147.01
2026-06-18 11:35:41.689597,-192.04
2026-06-18 11:35:41.697390,-209.99
2026-06-18 11:35:41.701722,-176.1
2026-06-18 11:35:41.701722,-147.36
2026-06-18 11:35:41.719349,-157.57
2026-06-18 11:35:41.719349,-177.68
2026-06-18 11:35:41.735061,-192.71
2026-06-18 11:35:41.735061,-183.79
2026-06-18 11:35:41.749668,-187.84
2026-06-18 11:35:41.749668,-173.97
2026-06-18 11:35:41.767207,-160.16
2026-06-18 11:35:41.767207,-165.33
2026-06-18 11:35:41.783390,-166.5
2026-06-18 11:35:41.783919,-147.75
2026-06-18 11:35:41.798200,-134.08
2026-06-18 11:35:41.806317,-131.42
2026-06-18 11:35:41.814565,-162.6
2026-06-18 11:35:41.822374,-190.64
2026-06-18 11:35:41.829842,-187.7
2026-06-18 11:35:41.837759,-164.87
2026-06-18 11:35:41.841879,-160.07
2026-06-18 11:35:41.849794,-179.17
2026-06-18 11:35:41.849794,-176.28
2026-06-18 11:35:41.867512,-167.44
2026-06-18 11:35:41.867512,-177.55
2026-06-18 11:35:41.883073,-208.5
2026-06-18 11:35:41.891839,-192.53
2026-06-18 11:35:41.900020,-115.95
2026-06-18 11:35:41.908374,-35.77
2026-06-18 11:35:41.915568,-65.44
2026-06-18 11:35:41.920016,-167.6
2026-06-18 11:35:41.932768,-249.35
2026-06-18 11:35:41.934786,-255.06
2026-06-18 11:35:41.947963,-242.84
2026-06-18 11:35:41.950287,-256.55
2026-06-18 11:35:41.950287,-269.2
2026-06-18 11:35:41.966428,-253.93
2026-06-18 11:35:41.966428,-237.73
2026-06-18 11:35:41.983693,-254.45
2026-06-18 11:35:41.983693,-273.08
2026-06-18 11:35:42.001630,-246.84
2026-06-18 11:35:42.009831,-195.86
2026-06-18 11:35:42.017861,-175.97
2026-06-18 11:35:42.025243,-186.04
2026-06-18 11:35:42.033421,-192.07
2026-06-18 11:35:42.033931,-179.17
2026-06-18 11:35:42.048199,-195.19
2026-06-18 11:35:42.050995,-220.08
2026-06-18 11:35:42.064453,-209.03
2026-06-18 11:35:42.066311,-152.27
2026-06-18 11:35:42.066311,-106.73
2026-06-18 11:35:42.083102,-99.23
2026-06-18 11:35:42.083102,-87.79
2026-06-18 11:35:42.099747,-37.6
2026-06-18 11:35:42.099747,13.33
2026-06-18 11:35:42.117336,24.21
2026-06-18 11:35:42.120596,13.14
2026-06-18 11:35:42.134059,27.01
2026-06-18 11:35:42.136883,45.78
2026-06-18 11:35:42.150163,15.7
2026-06-18 11:35:42.156110,-27.17
2026-06-18 11:35:42.165837,-42.95
2026-06-18 11:35:42.167838,-15.87
2026-06-18 11:35:42.181392,-19.77
2026-06-18 11:35:42.183406,-83.35
2026-06-18 11:35:42.183406,-159.55
2026-06-18 11:35:42.204437,-177.66
2026-06-18 11:35:42.204437,-144.93
2026-06-18 11:35:42.220647,-129.28
2026-06-18 11:35:42.220647,-146.54
2026-06-18 11:35:42.233259,-160.74
2026-06-18 11:35:42.233259,-158.94
2026-06-18 11:35:42.250003,-142.22
2026-06-18 11:35:42.250003,-129.57
2026-06-18 11:35:42.267061,-131.91
2026-06-18 11:35:42.275119,-130.25
2026-06-18 11:35:42.282676,-137.56
2026-06-18 11:35:42.282676,-151.8
2026-06-18 11:35:42.298991,-170.94
2026-06-18 11:35:42.301006,-150.19
2026-06-18 11:35:42.314738,-112.62
2026-06-18 11:35:42.320743,-85.19
2026-06-18 11:35:42.320743,-93.72
2026-06-18 11:35:42.338015,-135.04
2026-06-18 11:35:42.345689,-158.25
2026-06-18 11:35:42.352790,-138.55
2026-06-18 11:35:42.357880,-111.99
2026-06-18 11:35:42.367260,-125.36
2026-06-18 11:35:42.372076,-156.57
2026-06-18 11:35:42.383688,-192.6
2026-06-18 11:35:42.383688,-210.55
2026-06-18 11:35:42.399749,-222.43
2026-06-18 11:35:42.399749,-226.29
2026-06-18 11:35:42.416070,-240.08
2026-06-18 11:35:42.424402,-246.84
2026-06-18 11:35:42.432263,-241.63
2026-06-18 11:35:42.436133,-217.54
2026-06-18 11:35:42.447927,-185.6
2026-06-18 11:35:42.450960,-200.6
2026-06-18 11:35:42.450960,-271.23
2026-06-18 11:35:42.467205,-318.63
2026-06-18 11:35:42.467205,-316.04
2026-06-18 11:35:42.483371,-308.49
2026-06-18 11:35:42.483371,-319.89
2026-06-18 11:35:42.500515,-352.12
2026-06-18 11:35:42.506299,-351.35
2026-06-18 11:35:42.517421,-342.63
2026-06-18 11:35:42.524389,-343.9
2026-06-18 11:35:42.533143,-368.05
2026-06-18 11:35:42.541318,-376.16
2026-06-18 11:35:42.548139,-358.36
2026-06-18 11:35:42.550598,-332.69
2026-06-18 11:35:42.564790,-326.05
2026-06-18 11:35:42.566808,-330.39
2026-06-18 11:35:42.566808,-331.72
2026-06-18 11:35:42.583144,-324.09
2026-06-18 11:35:42.583144,-320.48
2026-06-18 11:35:42.599720,-322.86
2026-06-18 11:35:42.599720,-328.21
2026-06-18 11:35:42.616953,-325.58
2026-06-18 11:35:42.624946,-300.07
2026-06-18 11:35:42.633302,-288.62
2026-06-18 11:35:42.633302,-280.21
2026-06-18 11:35:42.650428,-271.84
2026-06-18 11:35:42.655624,-252.57
2026-06-18 11:35:42.665714,-225.44
2026-06-18 11:35:42.667726,-227.3
2026-06-18 11:35:42.681513,-235.12
2026-06-18 11:35:42.684313,-176.23
2026-06-18 11:35:42.697899,-88.79
2026-06-18 11:35:42.700545,-59.49
2026-06-18 11:35:42.711723,-108.94
2026-06-18 11:35:42.717156,-149.19
2026-06-18 11:35:42.727110,-125.56
2026-06-18 11:35:42.735993,-84.14
2026-06-18 11:35:42.744096,-97.65
2026-06-18 11:35:42.751307,-178.75
2026-06-18 11:35:42.759341,-224.62
2026-06-18 11:35:42.767002,-219.52
2026-06-18 11:35:42.767002,-190.56
2026-06-18 11:35:42.782517,-166.72
2026-06-18 11:35:42.784028,-158.92
2026-06-18 11:35:42.799021,-155.14
2026-06-18 11:35:42.800407,-141.43
2026-06-18 11:35:42.814878,-123.81
2026-06-18 11:35:42.817836,-103.29
2026-06-18 11:35:42.825430,-76.9
2026-06-18 11:35:42.832803,-60.6
2026-06-18 11:35:42.832803,-67.26
2026-06-18 11:35:42.853563,-79.86
2026-06-18 11:35:42.861087,-83.44
2026-06-18 11:35:42.868996,-66.11
2026-06-18 11:35:42.873343,-25.98
2026-06-18 11:35:42.883271,-16.89
2026-06-18 11:35:42.885212,-33.72
2026-06-18 11:35:42.899879,-50.47
2026-06-18 11:35:42.899879,-42.26
2026-06-18 11:35:42.915385,-24.14
2026-06-18 11:35:42.916637,9.81
2026-06-18 11:35:42.931268,30.66
2026-06-18 11:35:42.933288,28.52
2026-06-18 11:35:42.947731,3.5
2026-06-18 11:35:42.950337,-32.34
2026-06-18 11:35:42.950337,-61.03
2026-06-18 11:35:42.970571,-61.72
2026-06-18 11:35:42.978489,-48.48
2026-06-18 11:35:42.982722,-53.21
2026-06-18 11:35:42.982722,-51.95
2026-06-18 11:35:43.000156,-61.64
2026-06-18 11:35:43.000156,-80.24
2026-06-18 11:35:43.017562,-102.72
2026-06-18 11:35:43.025773,-101.21
2026-06-18 11:35:43.033325,-89.76
2026-06-18 11:35:43.033825,-63.44
2026-06-18 11:35:43.048791,-41.23
2026-06-18 11:35:43.055058,-45.01
2026-06-18 11:35:43.064715,-73.64
2026-06-18 11:35:43.066729,-85.21
2026-06-18 11:35:43.080821,-62.89
2026-06-18 11:35:43.088138,-25.76
2026-06-18 11:35:43.092337,-3.75
2026-06-18 11:35:43.099546,-17.66
2026-06-18 11:35:43.099546,-53.39
2026-06-18 11:35:43.117381,-72.03
2026-06-18 11:35:43.126436,-38.83
2026-06-18 11:35:43.133956,7.13
2026-06-18 11:35:43.133956,28.99
2026-06-18 11:35:43.150068,-20.91
2026-06-18 11:35:43.150068,-69.56
2026-06-18 11:35:43.165663,-68.22
2026-06-18 11:35:43.167486,-23.1
2026-06-18 11:35:43.181446,1.89
2026-06-18 11:35:43.189728,6.86
2026-06-18 11:35:43.197567,4.83
2026-06-18 11:35:43.202065,-8.13
2026-06-18 11:35:43.202065,-26.99
2026-06-18 11:35:43.217009,-43.77
2026-06-18 11:35:43.226891,-59.47
2026-06-18 11:35:43.233718,-88.03
2026-06-18 11:35:43.233718,-116.45
2026-06-18 11:35:43.250261,-113.87
2026-06-18 11:35:43.250261,-87.43
2026-06-18 11:35:43.265854,-79.04
2026-06-18 11:35:43.265854,-68.69
2026-06-18 11:35:43.282682,-42.48
2026-06-18 11:35:43.282682,-7.44
2026-06-18 11:35:43.299030,-9.39
2026-06-18 11:35:43.306587,-36.21
2026-06-18 11:35:43.314340,-50.96
2026-06-18 11:35:43.321490,-43.74
2026-06-18 11:35:43.330058,-46.5
2026-06-18 11:35:43.337231,-57.21
2026-06-18 11:35:43.345739,-26.08
2026-06-18 11:35:43.352846,10.86
2026-06-18 11:35:43.358210,-6.11
2026-06-18 11:35:43.365819,-78.71
2026-06-18 11:35:43.365819,-116.13
2026-06-18 11:35:43.382766,-102.61
2026-06-18 11:35:43.388766,-55.33
2026-06-18 11:35:43.400080,-44.11
2026-06-18 11:35:43.400080,-61.8
2026-06-18 11:35:43.415583,-83.38
2026-06-18 11:35:43.416476,-62.07
2026-06-18 11:35:43.431681,-16.99
2026-06-18 11:35:43.433435,12.95
2026-06-18 11:35:43.447383,3.93
2026-06-18 11:35:43.449142,-18.98
2026-06-18 11:35:43.449142,-17.89
2026-06-18 11:35:43.465992,-9.84
2026-06-18 11:35:43.465992,-28.69
2026-06-18 11:35:43.482773,-64.37
2026-06-18 11:35:43.482773,-67.03
2026-06-18 11:35:43.499346,-50.78
2026-06-18 11:35:43.499346,-32.61
2026-06-18 11:35:43.516694,-43.39
2026-06-18 11:35:43.516694,-63.08
2026-06-18 11:35:43.532828,-75.7
2026-06-18 11:35:43.533878,-48.45
2026-06-18 11:35:43.548516,-27.32
2026-06-18 11:35:43.550407,-15.24
2026-06-18 11:35:43.564203,-11.18
2026-06-18 11:35:43.569550,-11.13
2026-06-18 11:35:43.577057,-15.05
2026-06-18 11:35:43.582432,2.93
2026-06-18 11:35:43.582432,22.82
2026-06-18 11:35:43.599384,10.76
2026-06-18 11:35:43.599384,-48.99
2026-06-18 11:35:43.618726,-110.43
2026-06-18 11:35:43.623191,-112.87
2026-06-18 11:35:43.632674,-78.47
2026-06-18 11:35:43.632674,-71.12
2026-06-18 11:35:43.649332,-96.63
2026-06-18 11:35:43.649332,-102.12
2026-06-18 11:35:43.666010,-95.64
2026-06-18 11:35:43.666338,-74.26
2026-06-18 11:35:43.681790,-42.05
2026-06-18 11:35:43.683380,-10.0
2026-06-18 11:35:43.697396,4.97
2026-06-18 11:35:43.700227,-6.0
2026-06-18 11:35:43.700227,-26.86
2026-06-18 11:35:43.720299,-25.73
2026-06-18 11:35:43.728113,-3.71
2026-06-18 11:35:43.732643,-0.71
2026-06-18 11:35:43.736444,-20.61
2026-06-18 11:35:43.749342,-41.4
2026-06-18 11:35:43.749342,-40.2
2026-06-18 11:35:43.766015,-41.99
2026-06-18 11:35:43.766015,-53.72
2026-06-18 11:35:43.782821,-67.38
2026-06-18 11:35:43.783826,-61.07
2026-06-18 11:35:43.798407,-60.76
2026-06-18 11:35:43.799330,-58.47
2026-06-18 11:35:43.813904,-36.29
2026-06-18 11:35:43.821856,2.7
2026-06-18 11:35:43.829683,14.62
2026-06-18 11:35:43.837278,-18.28
2026-06-18 11:35:43.845755,-54.01
2026-06-18 11:35:43.853126,-78.62
2026-06-18 11:35:43.860998,-86.18
2026-06-18 11:35:43.868730,-91.72
2026-06-18 11:35:43.873790,-81.31
2026-06-18 11:35:43.882538,-83.89
2026-06-18 11:35:43.882538,-111.33
2026-06-18 11:35:43.899365,-136.65
2026-06-18 11:35:43.899365,-116.06
2026-06-18 11:35:43.915911,-73.69
2026-06-18 11:35:43.916277,-37.5
2026-06-18 11:35:43.931556,-49.26
2026-06-18 11:35:43.939248,-62.94
2026-06-18 11:35:43.946534,-56.66
2026-06-18 11:35:43.951532,-37.47
2026-06-18 11:35:43.951532,-28.33
2026-06-18 11:35:43.965574,-26.19
2026-06-18 11:35:43.965574,-21.09
2026-06-18 11:35:43.982152,-30.93
2026-06-18 11:35:43.982152,-57.64
2026-06-18 11:35:43.998996,-87.2
2026-06-18 11:35:43.998996,-90.75
2026-06-18 11:35:44.015666,-72.38
2026-06-18 11:35:44.015666,-66.05
2026-06-18 11:35:44.032136,-86.62
2026-06-18 11:35:44.032136,-87.18
2026-06-18 11:35:44.048232,-58.88
2026-06-18 11:35:44.056354,-6.85
2026-06-18 11:35:44.063893,14.08
2026-06-18 11:35:44.065901,2.07
2026-06-18 11:35:44.078550,-3.91
2026-06-18 11:35:44.088074,23.97
2026-06-18 11:35:44.088649,36.78
2026-06-18 11:35:44.098659,15.71
2026-06-18 11:35:44.110631,-0.29
2026-06-18 11:35:44.115378,-2.28
2026-06-18 11:35:44.115378,-11.23
2026-06-18 11:35:44.132139,-39.03
2026-06-18 11:35:44.132139,-61.72
2026-06-18 11:35:44.150160,-67.38
2026-06-18 11:35:44.157469,-70.03
2026-06-18 11:35:44.165473,-78.63
2026-06-18 11:35:44.169512,-58.34
2026-06-18 11:35:44.181393,-21.23
2026-06-18 11:35:44.182033,-7.2
2026-06-18 11:35:44.197281,-32.04
2026-06-18 11:35:44.198994,-41.83
2026-06-18 11:35:44.198994,-19.73
2026-06-18 11:35:44.218116,22.16
2026-06-18 11:35:44.218116,67.82
2026-06-18 11:35:44.232103,72.46
2026-06-18 11:35:44.232103,47.22
2026-06-18 11:35:44.248691,1.21
2026-06-18 11:35:44.248691,-27.65
2026-06-18 11:35:44.266764,-33.48
2026-06-18 11:35:44.274779,-29.33
2026-06-18 11:35:44.281962,-49.09
2026-06-18 11:35:44.281962,-50.83
2026-06-18 11:35:44.298783,-22.72
2026-06-18 11:35:44.305703,18.19
2026-06-18 11:35:44.313733,17.11
2026-06-18 11:35:44.315326,-3.87
2026-06-18 11:35:44.315326,-4.85
2026-06-18 11:35:44.331802,-3.83
2026-06-18 11:35:44.331802,-11.77
2026-06-18 11:35:44.350612,-26.64
2026-06-18 11:35:44.350612,-12.57
2026-06-18 11:35:44.368734,19.33
2026-06-18 11:35:44.376221,19.23
2026-06-18 11:35:44.383944,-22.65
2026-06-18 11:35:44.388940,-56.37
2026-06-18 11:35:44.399002,-51.11
2026-06-18 11:35:44.399002,-20.01
2026-06-18 11:35:44.415712,-16.93
2026-06-18 11:35:44.421491,-23.81
2026-06-18 11:35:44.430957,-29.66
2026-06-18 11:35:44.432578,-16.58
2026-06-18 11:35:44.447132,-0.57
2026-06-18 11:35:44.452513,5.4
2026-06-18 11:35:44.462215,4.38
2026-06-18 11:35:44.465640,1.37
2026-06-18 11:35:44.465640,4.35
2026-06-18 11:35:44.485504,16.27
2026-06-18 11:35:44.493466,38.08
2026-06-18 11:35:44.498354,59.78
2026-06-18 11:35:44.498354,52.51
2026-06-18 11:35:44.515932,15.43
2026-06-18 11:35:44.515932,13.37
2026-06-18 11:35:44.532301,47.13
2026-06-18 11:35:44.532301,78.73
2026-06-18 11:35:44.548616,42.52
2026-06-18 11:35:44.555184,-31.32
2026-06-18 11:35:44.563595,-79.92
2026-06-18 11:35:44.565599,-63.6
2026-06-18 11:35:44.565599,-41.39
2026-06-18 11:35:44.582044,-50.14
2026-06-18 11:35:44.595837,-49.89
2026-06-18 11:35:44.602832,-19.79
2026-06-18 11:35:44.608674,11.15
2026-06-18 11:35:44.615604,-8.8
2026-06-18 11:35:44.615604,-39.6
2026-06-18 11:35:44.631746,-34.43
2026-06-18 11:35:44.631746,-3.41
2026-06-18 11:35:44.648728,2.57
2026-06-18 11:35:44.648728,-1.42
2026-06-18 11:35:44.690037,-7.38
2026-06-18 11:35:44.690037,8.57
2026-06-18 11:35:44.690037,21.47
2026-06-18 11:35:44.690037,23.35
2026-06-18 11:35:44.696612,4.33
2026-06-18 11:35:44.704823,-13.6
2026-06-18 11:35:44.711890,-1.6
2026-06-18 11:35:44.716939,24.28
2026-06-18 11:35:44.716939,59.98
2026-06-18 11:35:44.735225,69.63
2026-06-18 11:35:44.735225,56.35
2026-06-18 11:35:44.748544,31.19
2026-06-18 11:35:44.748544,12.13
2026-06-18 11:35:44.767033,-8.83
2026-06-18 11:35:44.767033,-19.73
2026-06-18 11:35:44.782211,-41.52
2026-06-18 11:35:44.782211,-74.15
2026-06-18 11:35:44.798288,-102.63
2026-06-18 11:35:44.798288,-98.14
2026-06-18 11:35:44.813516,-83.72
2026-06-18 11:35:44.821767,-59.42
2026-06-18 11:35:44.825727,-42.21
2026-06-18 11:35:44.836211,-29.06
2026-06-18 11:35:44.836211,-21.95
2026-06-18 11:35:44.848671,-33.78
2026-06-18 11:35:44.848671,-40.58
2026-06-18 11:35:44.865223,-33.41
2026-06-18 11:35:44.865223,-8.37
2026-06-18 11:35:44.884251,8.59
2026-06-18 11:35:44.891994,-2.4
2026-06-18 11:35:44.900275,-32.23
2026-06-18 11:35:44.907567,-53.96
2026-06-18 11:35:44.915549,-46.73
2026-06-18 11:35:44.922905,-17.64
2026-06-18 11:35:44.931404,-4.62
2026-06-18 11:35:44.936452,-19.52
2026-06-18 11:35:44.946884,-48.28
2026-06-18 11:35:44.952929,-43.06
2026-06-18 11:35:44.952929,-4.04
2026-06-18 11:35:44.965550,31.8
2026-06-18 11:35:44.965550,27.66
2026-06-18 11:35:44.981926,13.59
2026-06-18 11:35:44.981926,31.44
2026-06-18 11:35:44.998806,58.14
2026-06-18 11:35:44.998806,54.87
2026-06-18 11:35:45.017575,3.85
2026-06-18 11:35:45.025563,-36.97
2026-06-18 11:35:45.032283,-42.75
2026-06-18 11:35:45.040297,-33.58
2026-06-18 11:35:45.048280,-36.4
2026-06-18 11:35:45.049281,-44.18
2026-06-18 11:35:45.063529,-51.92
2026-06-18 11:35:45.065879,-43.7
2026-06-18 11:35:45.080131,-19.6
2026-06-18 11:35:45.082580,10.35
2026-06-18 11:35:45.082580,21.24
2026-06-18 11:35:45.098836,4.22
2026-06-18 11:35:45.110801,-13.71
2026-06-18 11:35:45.115531,-11.65
2026-06-18 11:35:45.115531,2.34
2026-06-18 11:35:45.131905,-3.64
2026-06-18 11:35:45.131905,-15.57
2026-06-18 11:35:45.148805,-28.42
2026-06-18 11:35:45.148805,-40.22
2026-06-18 11:35:45.165889,-39.02
2026-06-18 11:35:45.169301,-41.81
2026-06-18 11:35:45.181115,-65.49
2026-06-18 11:35:45.182466,-68.14
2026-06-18 11:35:45.196856,-35.96
2026-06-18 11:35:45.198902,0.04
2026-06-18 11:35:45.198902,8.0
2026-06-18 11:35:45.215112,-3.98
2026-06-18 11:35:45.215112,4.0
2026-06-18 11:35:45.232267,36.81
2026-06-18 11:35:45.232267,56.53
2026-06-18 11:35:45.248823,29.38
2026-06-18 11:35:45.248823,7.34
2026-06-18 11:35:45.265355,14.27
2026-06-18 11:35:45.265355,26.14
2026-06-18 11:35:45.282238,3.12
2026-06-18 11:35:45.282238,-20.77
2026-06-18 11:35:45.298660,-46.54
2026-06-18 11:35:45.298660,-52.27
2026-06-18 11:35:45.313463,-51.02
2026-06-18 11:35:45.315360,-30.86
2026-06-18 11:35:45.330000,-8.82
2026-06-18 11:35:45.332028,16.1
2026-06-18 11:35:45.332028,30.94
2026-06-18 11:35:45.352819,20.84
2026-06-18 11:35:45.361220,1.83
2026-06-18 11:35:45.368670,-9.12
2026-06-18 11:35:45.376405,-12.06
2026-06-18 11:35:45.384357,-15.98
2026-06-18 11:35:45.391547,-15.9
2026-06-18 11:35:45.399543,-14.83
2026-06-18 11:35:45.407858,-4.8
2026-06-18 11:35:45.415855,4.18
2026-06-18 11:35:45.423295,-11.77
2026-06-18 11:35:45.431228,-41.56
2026-06-18 11:35:45.439191,-54.28
2026-06-18 11:35:45.447163,-52.02
2026-06-18 11:35:45.454238,-27.88
2026-06-18 11:35:45.462214,-3.86
2026-06-18 11:35:45.467183,4.12
2026-06-18 11:35:45.467183,-23.76
2026-06-18 11:35:45.482046,-31.61
2026-06-18 11:35:45.482046,13.33
2026-06-18 11:35:45.499356,47.09
2026-06-18 11:35:45.499356,64.77
2026-06-18 11:35:45.515296,83.35
2026-06-18 11:35:45.515296,122.73
2026-06-18 11:35:45.532284,114.16
2026-06-18 11:35:45.532284,10.11
2026-06-18 11:35:45.548864,-108.35
2026-06-18 11:35:45.548864,-111.79
2026-06-18 11:35:45.564570,-39.59
2026-06-18 11:35:45.571592,-3.57
2026-06-18 11:35:45.580172,-43.35
2026-06-18 11:35:45.581995,-77.96
2026-06-18 11:35:45.581995,-59.66
2026-06-18 11:35:45.598103,-15.58
2026-06-18 11:35:45.610049,13.35
2026-06-18 11:35:45.614899,5.32
2026-06-18 11:35:45.620559,-0.67
2026-06-18 11:35:45.632568,-0.67
2026-06-18 11:35:45.632568,-6.64
2026-06-18 11:35:45.649112,-12.57
2026-06-18 11:35:45.649112,-6.54
2026-06-18 11:35:45.665156,16.38
2026-06-18 11:35:45.665156,37.19
2026-06-18 11:35:45.681218,25.06
2026-06-18 11:35:45.681976,-6.9
2026-06-18 11:35:45.696852,-25.77
2026-06-18 11:35:45.698990,-8.73
2026-06-18 11:35:45.698990,24.15
2026-06-18 11:35:45.714839,35.97
2026-06-18 11:35:45.714839,44.74
2026-06-18 11:35:45.732961,46.51
2026-06-18 11:35:45.732961,41.3
2026-06-18 11:35:45.748059,34.13
2026-06-18 11:35:45.748059,30.98
2026-06-18 11:35:45.766421,11.92
2026-06-18 11:35:45.774549,-9.04
2026-06-18 11:35:45.782932,-28.89
2026-06-18 11:35:45.790502,-39.69
2026-06-18 11:35:45.798389,-44.47
2026-06-18 11:35:45.798389,-51.21
2026-06-18 11:35:45.814318,-66.88
2026-06-18 11:35:45.815004,-57.59
2026-06-18 11:35:45.830038,-20.48
2026-06-18 11:35:45.833244,-1.48
2026-06-18 11:35:45.833244,-17.39
2026-06-18 11:35:45.848394,-28.25
2026-06-18 11:35:45.861128,-13.18
2026-06-18 11:35:45.865292,20.71
2026-06-18 11:35:45.865292,49.47
2026-06-18 11:35:45.881555,35.29
2026-06-18 11:35:45.892226,12.23
2026-06-18 11:35:45.899564,-1.76
2026-06-18 11:35:45.907828,-3.75
2026-06-18 11:35:45.915829,-10.69
2026-06-18 11:35:45.919978,-12.63
2026-06-18 11:35:45.931054,-8.58
2026-06-18 11:35:45.934663,-13.52
2026-06-18 11:35:45.946667,-38.32
2026-06-18 11:35:45.948654,-63.01
2026-06-18 11:35:45.948654,-67.67
2026-06-18 11:35:45.965609,-42.45
2026-06-18 11:35:45.965609,-7.42
2026-06-18 11:35:45.981799,11.53
2026-06-18 11:35:45.987516,23.41
2026-06-18 11:35:45.998290,15.33
2026-06-18 11:35:45.998290,7.29
2026-06-18 11:35:46.014896,-6.67
2026-06-18 11:35:46.014896,-19.57
2026-06-18 11:35:46.031669,-30.42
2026-06-18 11:35:46.033729,-44.2
2026-06-18 11:35:46.048148,-56.91
2026-06-18 11:35:46.048148,-51.65
2026-06-18 11:35:46.064183,-52.39
2026-06-18 11:35:46.072107,-49.14
2026-06-18 11:35:46.080283,-35.96
2026-06-18 11:35:46.082580,-12.9
2026-06-18 11:35:46.082580,-13.83
2026-06-18 11:35:46.102543,-31.67
2026-06-18 11:35:46.108071,-20.57
2026-06-18 11:35:46.115234,7.4
2026-06-18 11:35:46.115234,29.25
2026-06-18 11:35:46.134405,20.15
2026-06-18 11:35:46.141581,6.12
2026-06-18 11:35:46.148493,-2.87
2026-06-18 11:35:46.148493,-16.78
2026-06-18 11:35:46.165530,-46.55
2026-06-18 11:35:46.165530,-62.24
2026-06-18 11:35:46.180985,-53.97
2026-06-18 11:35:46.181700,-29.82
2026-06-18 11:35:46.196606,-19.72
2026-06-18 11:35:46.198423,-25.59
2026-06-18 11:35:46.198423,-37.4
2026-06-18 11:35:46.214792,-41.19
2026-06-18 11:35:46.214792,-35.02
2026-06-18 11:35:46.234133,-22.9
2026-06-18 11:35:46.234133,-18.81
2026-06-18 11:35:46.248115,-30.65
2026-06-18 11:35:46.248115,-29.51
2026-06-18 11:35:46.264815,-6.47
2026-06-18 11:35:46.264815,28.38
2026-06-18 11:35:46.281861,27.25
2026-06-18 11:35:46.281861,-2.74
2026-06-18 11:35:46.298466,-49.49
2026-06-18 11:35:46.305852,-65.16
2026-06-18 11:35:46.314048,-49.91
2026-06-18 11:35:46.321213,-38.72
2026-06-18 11:35:46.329757,-27.58
2026-06-18 11:35:46.334176,10.37
2026-06-18 11:35:46.334176,70.02
2026-06-18 11:35:46.347861,98.52
2026-06-18 11:35:46.347861,68.18
2026-06-18 11:35:46.364848,3.16
2026-06-18 11:35:46.364848,-20.73
2026-06-18 11:35:46.381460,-11.67
2026-06-18 11:35:46.381460,14.26
2026-06-18 11:35:46.398255,14.18
2026-06-18 11:35:46.398255,-8.77
2026-06-18 11:35:46.415033,-36.59
2026-06-18 11:35:46.423057,-47.35
2026-06-18 11:35:46.431483,-53.08
2026-06-18 11:35:46.436182,-54.81
2026-06-18 11:35:46.446520,-55.53
2026-06-18 11:35:46.448550,-43.31
2026-06-18 11:35:46.448550,-48.07
2026-06-18 11:35:46.466185,-50.81
2026-06-18 11:35:46.466185,7.15
2026-06-18 11:35:46.482487,125.52
2026-06-18 11:35:46.482487,203.5
2026-06-18 11:35:46.498418,131.83
2026-06-18 11:35:46.498418,-8.13
2026-06-18 11:35:46.517921,-81.71
2026-06-18 11:35:46.524981,-45.49
2026-06-18 11:35:46.532678,-11.43
2026-06-18 11:35:46.540642,-43.21
2026-06-18 11:35:46.548467,-81.8
2026-06-18 11:35:46.548467,-62.49
2026-06-18 11:35:46.564221,-29.34
2026-06-18 11:35:46.566225,-35.16
2026-06-18 11:35:46.579930,-56.88
2026-06-18 11:35:46.582693,-35.7
2026-06-18 11:35:46.582693,11.25
2026-06-18 11:35:46.600959,33.08
2026-06-18 11:35:46.600959,34.9
2026-06-18 11:35:46.616316,29.76
2026-06-18 11:35:46.616316,44.53
2026-06-18 11:35:46.634642,39.33
2026-06-18 11:35:46.642489,9.29
2026-06-18 11:35:46.648878,-17.62
2026-06-18 11:35:46.656915,-13.56
2026-06-18 11:35:46.665542,0.44
2026-06-18 11:35:46.666170,-10.51
2026-06-18 11:35:46.681281,-40.3
2026-06-18 11:35:46.682578,-56.02
2026-06-18 11:35:46.696959,-52.76
2026-06-18 11:35:46.699988,-26.62
2026-06-18 11:35:46.713400,-5.59
2026-06-18 11:35:46.716009,13.34
2026-06-18 11:35:46.716009,24.22
2026-06-18 11:35:46.735056,5.19
2026-06-18 11:35:46.735056,-2.8
2026-06-18 11:35:46.749039,11.15
2026-06-18 11:35:46.749039,50.89
2026-06-18 11:35:46.765784,52.63
2026-06-18 11:35:46.765784,2.62
2026-06-18 11:35:46.783006,-54.11
2026-06-18 11:35:46.783006,-67.77
2026-06-18 11:35:46.798532,-45.54
2026-06-18 11:35:46.805728,-14.47
2026-06-18 11:35:46.813646,-15.39
2026-06-18 11:35:46.815662,-30.24
2026-06-18 11:35:46.830231,-52.98
2026-06-18 11:35:46.836508,-69.63
2026-06-18 11:35:46.846412,-81.22
2026-06-18 11:35:46.852914,-72.85
2026-06-18 11:35:46.857916,-36.67
2026-06-18 11:35:46.865497,-7.63
2026-06-18 11:35:46.865497,-9.58
2026-06-18 11:35:46.882384,-20.48
2026-06-18 11:35:46.882384,-28.34
2026-06-18 11:35:46.899018,-34.16
2026-06-18 11:35:46.899018,-32.0
2026-06-18 11:35:46.915529,-25.87
2026-06-18 11:35:46.923844,-14.8
2026-06-18 11:35:46.931822,-21.69
2026-06-18 11:35:46.939543,-39.49
2026-06-18 11:35:46.946585,-52.23
2026-06-18 11:35:46.954993,-39.03
2026-06-18 11:35:46.963389,-25.9
2026-06-18 11:35:46.967478,-32.74
2026-06-18 11:35:46.967478,-13.67
2026-06-18 11:35:46.982450,42.12
2026-06-18 11:35:46.982450,89.67
2026-06-18 11:35:46.999111,80.27
2026-06-18 11:35:47.010509,60.96
2026-06-18 11:35:47.016065,40.75
2026-06-18 11:35:47.016065,29.61
2026-06-18 11:35:47.033017,-0.39
2026-06-18 11:35:47.035803,-31.24
2026-06-18 11:35:47.048914,-28.09
2026-06-18 11:35:47.056392,-10.04
2026-06-18 11:35:47.063942,-34.87
2026-06-18 11:35:47.071890,-67.53
2026-06-18 11:35:47.080188,-71.17
2026-06-18 11:35:47.083096,-47.93
2026-06-18 11:35:47.096472,-12.87
2026-06-18 11:35:47.098790,27.0
2026-06-18 11:35:47.098790,52.73
2026-06-18 11:35:47.115723,40.53
2026-06-18 11:35:47.115723,18.44
2026-06-18 11:35:47.134231,5.41
2026-06-18 11:35:47.135789,15.33
2026-06-18 11:35:47.149617,27.2
2026-06-18 11:35:47.157854,37.01
2026-06-18 11:35:47.165841,34.84
2026-06-18 11:35:47.171592,32.67
2026-06-18 11:35:47.181248,21.56
2026-06-18 11:35:47.182253,10.51
2026-06-18 11:35:47.196321,-7.45
2026-06-18 11:35:47.198134,-11.4
2026-06-18 11:35:47.213175,-3.38
2026-06-18 11:35:47.215575,3.6
2026-06-18 11:35:47.215575,13.54
2026-06-18 11:35:47.235915,12.47
2026-06-18 11:35:47.235915,16.39
2026-06-18 11:35:47.248348,11.33
2026-06-18 11:35:47.248348,4.31
2026-06-18 11:35:47.267354,5.29
2026-06-18 11:35:47.275304,20.18
2026-06-18 11:35:47.282693,16.1
2026-06-18 11:35:47.290689,-4.87
2026-06-18 11:35:47.298004,-14.8
2026-06-18 11:35:47.298004,7.17
2026-06-18 11:35:47.313868,19.07
2026-06-18 11:35:47.314866,13.0
2026-06-18 11:35:47.329966,-5.97
2026-06-18 11:35:47.336441,-16.88
2026-06-18 11:35:47.346240,-21.77
2026-06-18 11:35:47.348260,-11.71
2026-06-18 11:35:47.348260,-1.7
2026-06-18 11:35:47.364951,25.17
2026-06-18 11:35:47.364951,85.74
2026-06-18 11:35:47.381926,134.06
2026-06-18 11:35:47.381926,107.52
2026-06-18 11:35:47.399763,-2.46
2026-06-18 11:35:47.408147,-90.01
2026-06-18 11:35:47.415740,-106.48
2026-06-18 11:35:47.423619,-68.13
2026-06-18 11:35:47.431475,-53.86
2026-06-18 11:35:47.436535,-61.55
2026-06-18 11:35:47.447361,-62.24
2026-06-18 11:35:47.452345,-63.92
2026-06-18 11:35:47.462823,-63.6
2026-06-18 11:35:47.464572,-30.45
2026-06-18 11:35:47.464572,24.43
2026-06-18 11:35:47.481566,52.17
2026-06-18 11:35:47.481566,50.91
2026-06-18 11:35:47.497872,16.83
2026-06-18 11:35:47.497872,-0.17
2026-06-18 11:35:47.514585,11.77
2026-06-18 11:35:47.514585,36.59
2026-06-18 11:35:47.531163,30.43
2026-06-18 11:35:47.536779,9.39
2026-06-18 11:35:47.548267,1.38
2026-06-18 11:35:47.548267,11.32
2026-06-18 11:35:47.563800,10.27
2026-06-18 11:35:47.564467,-2.72
2026-06-18 11:35:47.579434,-11.66
2026-06-18 11:35:47.581437,3.33
2026-06-18 11:35:47.581437,13.26
2026-06-18 11:35:47.603129,15.18
2026-06-18 11:35:47.610570,18.09
2026-06-18 11:35:47.618591,9.05
2026-06-18 11:35:47.625349,4.03
2026-06-18 11:35:47.630981,9.98
2026-06-18 11:35:47.636882,47.74
2026-06-18 11:35:47.648104,67.4
2026-06-18 11:35:47.648104,44.18
2026-06-18 11:35:47.665536,-22.71
2026-06-18 11:35:47.673350,-69.36
2026-06-18 11:35:47.681335,-86.92
2026-06-18 11:35:47.689140,-71.57
2026-06-18 11:35:47.696137,-53.3
2026-06-18 11:35:47.698146,-48.06
2026-06-18 11:35:47.712735,-45.83
2026-06-18 11:35:47.714490,-38.63
2026-06-18 11:35:47.714490,-31.47
2026-06-18 11:35:47.735338,-31.32
2026-06-18 11:35:47.736903,-37.13
2026-06-18 11:35:47.748432,-43.91
2026-06-18 11:35:47.748432,-20.8
2026-06-18 11:35:47.764565,12.13
2026-06-18 11:35:47.764565,34.96
2026-06-18 11:35:47.782552,21.85
2026-06-18 11:35:47.782552,-10.1
2026-06-18 11:35:47.798446,-34.92
2026-06-18 11:35:47.798446,-26.79
2026-06-18 11:35:47.813957,-14.72
2026-06-18 11:35:47.815566,-22.6
2026-06-18 11:35:47.829623,-40.4
2026-06-18 11:35:47.837081,-48.16
2026-06-18 11:35:47.837081,-49.91
2026-06-18 11:35:47.848712,-43.69
2026-06-18 11:35:47.848712,-25.56
2026-06-18 11:35:47.864766,-8.52
2026-06-18 11:35:47.864766,10.43
2026-06-18 11:35:47.881335,14.36
2026-06-18 11:35:47.881335,22.25
2026-06-18 11:35:47.898619,37.06
2026-06-18 11:35:47.898619,44.84
2026-06-18 11:35:47.914862,21.73
2026-06-18 11:35:47.914862,-4.25
2026-06-18 11:35:47.931531,10.69
2026-06-18 11:35:47.937289,49.45
2026-06-18 11:35:47.946175,41.24
2026-06-18 11:35:47.948497,3.22
2026-06-18 11:35:47.962850,-17.69
2026-06-18 11:35:47.965820,-8.64
2026-06-18 11:35:47.965820,0.35
2026-06-18 11:35:47.981469,-11.59
2026-06-18 11:35:47.981469,-21.48
2026-06-18 11:35:47.998948,0.52
2026-06-18 11:35:47.998948,44.29
2026-06-18 11:35:48.016944,70.94
2026-06-18 11:35:48.024835,79.54
2026-06-18 11:35:48.033041,58.25
2026-06-18 11:35:48.040467,25.12
2026-06-18 11:35:48.048222,-0.88
2026-06-18 11:35:48.048222,-0.87
2026-06-18 11:35:48.063822,-1.86
2026-06-18 11:35:48.065185,-5.83
2026-06-18 11:35:48.079315,-22.72
2026-06-18 11:35:48.080872,-42.51
2026-06-18 11:35:48.080872,-38.31
2026-06-18 11:35:48.098135,-4.29
2026-06-18 11:35:48.098135,25.58
2026-06-18 11:35:48.115274,10.53
2026-06-18 11:35:48.115274,-1.47
2026-06-18 11:35:48.131474,17.45
2026-06-18 11:35:48.140801,62.13
2026-06-18 11:35:48.148806,62.82
2026-06-18 11:35:48.148806,23.7
2026-06-18 11:35:48.164774,-15.22
2026-06-18 11:35:48.164774,-38.03
2026-06-18 11:35:48.181318,-58.74
2026-06-18 11:35:48.181743,-66.4
2026-06-18 11:35:48.197069,-61.1
2026-06-18 11:35:48.205065,-41.89
2026-06-18 11:35:48.212650,-34.71
2026-06-18 11:35:48.214471,-40.51
2026-06-18 11:35:48.214471,-36.33
2026-06-18 11:35:48.235762,-16.24
2026-06-18 11:35:48.241167,-2.23
2026-06-18 11:35:48.248026,-21.13
2026-06-18 11:35:48.248026,-11.07
2026-06-18 11:35:48.264671,21.82
2026-06-18 11:35:48.264671,47.58
2026-06-18 11:35:48.281400,3.56
2026-06-18 11:35:48.281400,-54.17
2026-06-18 11:35:48.297822,-58.87
2026-06-18 11:35:48.297822,-22.76
2026-06-18 11:35:48.313502,-19.66
2026-06-18 11:35:48.314497,-33.49
2026-06-18 11:35:48.329330,12.45
2026-06-18 11:35:48.335637,114.87
2026-06-18 11:35:48.341664,147.13
2026-06-18 11:35:48.352951,71.77
2026-06-18 11:35:48.360756,-15.15
2026-06-18 11:35:48.368562,-31.99
2026-06-18 11:35:48.373646,4.98
2026-06-18 11:35:48.381420,7.94
2026-06-18 11:35:48.381420,-22.94
2026-06-18 11:35:48.398314,-58.65
2026-06-18 11:35:48.403383,-53.38
2026-06-18 11:35:48.415229,-18.29
2026-06-18 11:35:48.415229,10.66
2026-06-18 11:35:48.431394,3.64
2026-06-18 11:35:48.438870,-20.26
2026-06-18 11:35:48.446668,-32.09
2026-06-18 11:35:48.454919,-19.99
2026-06-18 11:35:48.462200,-6.96
2026-06-18 11:35:48.470660,-20.85
2026-06-18 11:35:48.478637,-22.74
2026-06-18 11:35:48.482711,-11.68
2026-06-18 11:35:48.482711,2.31
2026-06-18 11:35:48.498737,8.27
2026-06-18 11:35:48.498737,40.06
2026-06-18 11:35:48.516606,69.71
2026-06-18 11:35:48.516606,76.33
2026-06-18 11:35:48.532405,48.09
2026-06-18 11:35:48.536885,18.99
2026-06-18 11:35:48.548533,13.92
2026-06-18 11:35:48.549518,25.79
2026-06-18 11:35:48.564110,8.75
2026-06-18 11:35:48.572355,-13.18
2026-06-18 11:35:48.579663,-15.11
2026-06-18 11:35:48.587643,-1.1
2026-06-18 11:35:48.596225,1.89
2026-06-18 11:35:48.598658,5.86
2026-06-18 11:35:48.598658,38.66
2026-06-18 11:35:48.614480,56.38
2026-06-18 11:35:48.614480,36.2
2026-06-18 11:35:48.631329,-23.68
2026-06-18 11:35:48.642508,-45.45
2026-06-18 11:35:48.648937,-31.3
2026-06-18 11:35:48.648937,-17.21
2026-06-18 11:35:48.665416,-27.07
2026-06-18 11:35:48.665416,-27.93
2026-06-18 11:35:48.681742,-11.87
2026-06-18 11:35:48.683060,-6.84
2026-06-18 11:35:48.697344,-45.61
2026-06-18 11:35:48.705249,-66.28
2026-06-18 11:35:48.712486,-29.13
2026-06-18 11:35:48.720661,18.77
2026-06-18 11:35:48.720661,24.65
2026-06-18 11:35:48.735298,-19.25
2026-06-18 11:35:48.742794,-42.04
2026-06-18 11:35:48.748181,-25.91
2026-06-18 11:35:48.748181,-5.88
2026-06-18 11:35:48.764897,-17.79
2026-06-18 11:35:48.764897,-32.63
2026-06-18 11:35:48.781482,-19.53
2026-06-18 11:35:48.781482,0.47
2026-06-18 11:35:48.798152,-6.5
2026-06-18 11:35:48.806783,-16.42
2026-06-18 11:35:48.814001,-10.37
2026-06-18 11:35:48.815871,-7.33
2026-06-18 11:35:48.829154,-20.23
2026-06-18 11:35:48.835678,-28.09
2026-06-18 11:35:48.842919,-14.02
2026-06-18 11:35:48.847405,7.95
2026-06-18 11:35:48.856700,42.73
2026-06-18 11:35:48.866812,61.42
2026-06-18 11:35:48.866812,63.1
2026-06-18 11:35:48.883790,48.86
2026-06-18 11:35:48.892139,35.68
2026-06-18 11:35:48.899501,30.53
2026-06-18 11:35:48.907409,48.28
2026-06-18 11:35:48.915309,51.03
2026-06-18 11:35:48.923405,31.87
2026-06-18 11:35:48.930455,-3.12
2026-06-18 11:35:48.938879,-29.97
2026-06-18 11:35:48.946657,-43.75
2026-06-18 11:35:48.951617,-31.59
2026-06-18 11:35:48.962540,10.36
2026-06-18 11:35:48.964435,38.17
2026-06-18 11:35:48.964435,26.04
2026-06-18 11:35:48.980969,-12.9
2026-06-18 11:35:48.980969,-19.8
2026-06-18 11:35:48.997759,20.1
2026-06-18 11:35:48.997759,57.81
2026-06-18 11:35:49.014378,52.55
2026-06-18 11:35:49.014378,54.27
2026-06-18 11:35:49.031194,77.88
2026-06-18 11:35:49.031194,80.48
2026-06-18 11:35:49.046581,24.36
2026-06-18 11:35:49.046581,-35.47
2026-06-18 11:35:49.063329,-37.28
2026-06-18 11:35:49.064584,-17.19
2026-06-18 11:35:49.078913,-28.05
2026-06-18 11:35:49.080707,-62.74
2026-06-18 11:35:49.080707,-74.36
2026-06-18 11:35:49.097616,-42.15
2026-06-18 11:35:49.097616,-8.11
2026-06-18 11:35:49.114422,-23.99
2026-06-18 11:35:49.114422,-25.86
2026-06-18 11:35:49.134121,1.13
2026-06-18 11:35:49.138287,24.01
2026-06-18 11:35:49.147925,-3.97
2026-06-18 11:35:49.147925,-25.84
2026-06-18 11:35:49.165158,4.14
2026-06-18 11:35:49.170351,55.86
2026-06-18 11:35:49.181531,57.57
2026-06-18 11:35:49.181962,10.52
2026-06-18 11:35:49.197287,-12.42
2026-06-18 11:35:49.198932,12.52
2026-06-18 11:35:49.212926,23.4
2026-06-18 11:35:49.220554,13.33
2026-06-18 11:35:49.227564,3.32
2026-06-18 11:35:49.235734,-0.68
2026-06-18 11:35:49.243852,19.22
2026-06-18 11:35:49.248029,42.01
2026-06-18 11:35:49.248029,65.68
2026-06-18 11:35:49.265424,67.35
2026-06-18 11:35:49.265424,43.13
2026-06-18 11:35:49.281401,-8.83
2026-06-18 11:35:49.281401,-66.49
2026-06-18 11:35:49.297729,-75.12
2026-06-18 11:35:49.297729,19.78
2026-06-18 11:35:49.314483,137.1
2026-06-18 11:35:49.315386,151.34
2026-06-18 11:35:49.329651,28.19
2026-06-18 11:35:49.332516,-88.36
2026-06-18 11:35:49.345757,-96.88
2026-06-18 11:35:49.353406,-37.69
2026-06-18 11:35:49.358509,-3.67
2026-06-18 11:35:49.364401,-10.61
2026-06-18 11:35:49.364401,-3.6
2026-06-18 11:35:49.381835,-2.58
2026-06-18 11:35:49.381835,-1.58
2026-06-18 11:35:49.399270,-0.57
2026-06-18 11:35:49.399270,-0.57
2026-06-18 11:35:49.415088,-4.55
2026-06-18 11:35:49.415088,-4.52
2026-06-18 11:35:49.431617,-7.49
2026-06-18 11:35:49.432581,-9.44
2026-06-18 11:35:49.446914,-15.36
2026-06-18 11:35:49.454642,-6.33
2026-06-18 11:35:49.461731,6.64
2026-06-18 11:35:49.467620,13.57
2026-06-18 11:35:49.467620,13.5
2026-06-18 11:35:49.481082,12.44
2026-06-18 11:35:49.481082,32.28
2026-06-18 11:35:49.498016,30.12
2026-06-18 11:35:49.498016,17.04
2026-06-18 11:35:49.515452,10.98
2026-06-18 11:35:49.515452,20.88
2026-06-18 11:35:49.531532,30.72
2026-06-18 11:35:49.531532,34.55
2026-06-18 11:35:49.547755,24.43
2026-06-18 11:35:49.556784,26.3
2026-06-18 11:35:49.564128,24.17
2026-06-18 11:35:49.571648,17.09
2026-06-18 11:35:49.579584,-24.79
2026-06-18 11:35:49.582019,-72.42
2026-06-18 11:35:49.595895,-92.96
2026-06-18 11:35:49.597906,-69.61
2026-06-18 11:35:49.597906,-35.43
2026-06-18 11:35:49.615239,-40.23
2026-06-18 11:35:49.615239,-46.99
2026-06-18 11:35:49.631634,-19.89
2026-06-18 11:35:49.631634,23.99
2026-06-18 11:35:49.648835,9.94
2026-06-18 11:35:49.648835,-27.92
2026-06-18 11:35:49.665089,-33.75
2026-06-18 11:35:49.672369,-5.72
2026-06-18 11:35:49.681297,-4.7
2026-06-18 11:35:49.681297,-25.57
2026-06-18 11:35:49.697014,-20.47
2026-06-18 11:35:49.698581,7.5
2026-06-18 11:35:49.712869,4.47
2026-06-18 11:35:49.715712,-17.44
2026-06-18 11:35:49.715712,-8.4
2026-06-18 11:35:49.735204,24.48
2026-06-18 11:35:49.738969,32.32
2026-06-18 11:35:49.747358,-0.68
2026-06-18 11:35:49.747358,-6.65
2026-06-18 11:35:49.766927,10.3
2026-06-18 11:35:49.775260,28.16
2026-06-18 11:35:49.782277,17.08
2026-06-18 11:35:49.790360,-2.91
2026-06-18 11:35:49.797389,-14.84
2026-06-18 11:35:49.797389,-13.77
2026-06-18 11:35:49.813415,-28.62
2026-06-18 11:35:49.814373,-41.41
2026-06-18 11:35:49.828891,-29.27
2026-06-18 11:35:49.830906,-16.19
2026-06-18 11:35:49.845487,-25.06
2026-06-18 11:35:49.847643,-40.85
2026-06-18 11:35:49.847643,-30.7
2026-06-18 11:35:49.864049,23.18
2026-06-18 11:35:49.876770,70.83
2026-06-18 11:35:49.880612,60.52
2026-06-18 11:35:49.880612,33.36
2026-06-18 11:35:49.897110,29.21
2026-06-18 11:35:49.897110,44.98
2026-06-18 11:35:49.914117,30.83
2026-06-18 11:35:49.914117,1.82
2026-06-18 11:35:49.931367,-25.06
2026-06-18 11:35:49.935562,-8.02
2026-06-18 11:35:49.946133,31.82
2026-06-18 11:35:49.954553,48.58
2026-06-18 11:35:49.964484,32.42
2026-06-18 11:35:49.970146,17.33
2026-06-18 11:35:49.978082,21.22
2026-06-18 11:35:49.985926,22.11
2026-06-18 11:35:49.993878,27.97
2026-06-18 11:35:49.998947,45.74
2026-06-18 11:35:49.998947,68.4
2026-06-18 11:35:50.015276,54.13
2026-06-18 11:35:50.015276,19.03
2026-06-18 11:35:50.032028,-0.96
2026-06-18 11:35:50.032028,9.99
2026-06-18 11:35:50.048495,14.91
2026-06-18 11:35:50.048495,-0.09
2026-06-18 11:35:50.063470,-9.04
2026-06-18 11:35:50.064981,1.95
2026-06-18 11:35:50.079834,-15.97
2026-06-18 11:35:50.081127,-43.75
2026-06-18 11:35:50.095533,-40.55
2026-06-18 11:35:50.097639,-13.48
2026-06-18 11:35:50.097639,5.49
2026-06-18 11:35:50.114577,7.45
2026-06-18 11:35:50.114577,21.35
2026-06-18 11:35:50.130731,48.1
2026-06-18 11:35:50.130731,69.75
2026-06-18 11:35:50.147333,50.5
2026-06-18 11:35:50.147333,22.39
2026-06-18 11:35:50.163946,2.38
2026-06-18 11:35:50.163946,-2.61
2026-06-18 11:35:50.180824,-14.54
2026-06-18 11:35:50.180824,-22.43
2026-06-18 11:35:50.196504,-30.27
2026-06-18 11:35:50.197877,-17.19
2026-06-18 11:35:50.212010,-2.18
2026-06-18 11:35:50.217072,-3.16
2026-06-18 11:35:50.217072,-9.11
2026-06-18 11:35:50.235123,-2.1
2026-06-18 11:35:50.235123,28.75
2026-06-18 11:35:50.247696,76.37
2026-06-18 11:35:50.252787,119.77
2026-06-18 11:35:50.264333,115.19
2026-06-18 11:35:50.264333,66.85
2026-06-18 11:35:50.280696,4.83
2026-06-18 11:35:50.285838,-35.0
2026-06-18 11:35:50.298414,-30.84
2026-06-18 11:35:50.306366,-5.81
2026-06-18 11:35:50.313428,-13.74
2026-06-18 11:35:50.321448,-36.56
2026-06-18 11:35:50.329751,-47.32
2026-06-18 11:35:50.335086,-58.03
2026-06-18 11:35:50.345423,-60.73
2026-06-18 11:35:50.347779,-42.51
2026-06-18 11:35:50.356759,-6.48
2026-06-18 11:35:50.363445,4.5
2026-06-18 11:35:50.363445,-3.48
2026-06-18 11:35:50.380503,-14.41
2026-06-18 11:35:50.380503,-8.37
2026-06-18 11:35:50.397026,1.62
2026-06-18 11:35:50.397026,0.62
2026-06-18 11:35:50.414060,-12.32
2026-06-18 11:35:50.414060,-2.31
2026-06-18 11:35:50.430639,16.61
2026-06-18 11:35:50.438672,21.5
2026-06-18 11:35:50.446624,1.49
2026-06-18 11:35:50.451248,-8.46
2026-06-18 11:35:50.461991,0.53
2026-06-18 11:35:50.463869,14.46
2026-06-18 11:35:50.463869,17.37
2026-06-18 11:35:50.480363,5.35
2026-06-18 11:35:50.490362,17.26
2026-06-18 11:35:50.498221,34.09
2026-06-18 11:35:50.498221,35.91
2026-06-18 11:35:50.513664,29.76
2026-06-18 11:35:50.513664,36.57
2026-06-18 11:35:50.530136,33.41
2026-06-18 11:35:50.535644,10.35
2026-06-18 11:35:50.547850,-20.54
2026-06-18 11:35:50.547850,-33.37
2026-06-18 11:35:50.563924,-42.16
2026-06-18 11:35:50.563924,-53.89
2026-06-18 11:35:50.579638,-51.63
2026-06-18 11:35:50.580639,-38.44
2026-06-18 11:35:50.595155,-30.29
2026-06-18 11:35:50.596726,-22.18
2026-06-18 11:35:50.596726,-2.16
2026-06-18 11:35:50.613799,13.77
2026-06-18 11:35:50.621306,25.64
2026-06-18 11:35:50.633631,32.47
2026-06-18 11:35:50.638635,51.22
2026-06-18 11:35:50.649883,44.99
2026-06-18 11:35:50.656388,7.95
2026-06-18 11:35:50.663448,-27.91
2026-06-18 11:35:50.663448,-26.77
2026-06-18 11:35:50.680667,-14.7
2026-06-18 11:35:50.680667,-20.6
2026-06-18 11:35:50.696409,-36.41
2026-06-18 11:35:50.697420,-29.27
2026-06-18 11:35:50.712021,-16.19
2026-06-18 11:35:50.714037,-11.13
2026-06-18 11:35:50.728546,-9.08
2026-06-18 11:35:50.730558,-6.05
2026-06-18 11:35:50.730558,4.92
2026-06-18 11:35:50.748135,1.91
2026-06-18 11:35:50.748135,3.89
2026-06-18 11:35:50.764479,20.79
2026-06-18 11:35:50.774838,51.53
2026-06-18 11:35:50.780762,65.2
2026-06-18 11:35:50.780762,40.0
2026-06-18 11:35:50.797007,-7.96
2026-06-18 11:35:50.797007,-32.79
2026-06-18 11:35:50.813800,-37.61
2026-06-18 11:35:50.813800,-17.52
2026-06-18 11:35:50.829052,-0.52
2026-06-18 11:35:50.837522,-4.49
2026-06-18 11:35:50.845502,-15.42
2026-06-18 11:35:50.853321,-25.29
2026-06-18 11:35:50.857339,-14.22
2026-06-18 11:35:50.865079,-0.22
2026-06-18 11:35:50.865079,1.78
2026-06-18 11:35:50.881534,-17.14
2026-06-18 11:35:50.881534,-28.99
2026-06-18 11:35:50.899926,-11.93
2026-06-18 11:35:50.899926,14.99
2026-06-18 11:35:50.914859,14.92
2026-06-18 11:35:50.914859,-1.08
2026-06-18 11:35:50.931173,-18.98
2026-06-18 11:35:50.931173,5.99
2026-06-18 11:35:50.946879,21.88
2026-06-18 11:35:50.954914,11.82
2026-06-18 11:35:50.961775,-0.18
2026-06-18 11:35:50.967109,-5.15
2026-06-18 11:35:50.978793,-6.12
2026-06-18 11:35:50.981332,-37.93
2026-06-18 11:35:50.981332,-54.66
2026-06-18 11:35:50.997187,-52.4
2026-06-18 11:35:50.997187,-24.27
2026-06-18 11:35:51.014999,2.71
2026-06-18 11:35:51.014999,-2.28
2026-06-18 11:35:51.033025,-33.11
2026-06-18 11:35:51.035238,-51.85
2026-06-18 11:35:51.048710,-47.61
2026-06-18 11:35:51.056604,-10.56
2026-06-18 11:35:51.063618,3.43
2026-06-18 11:35:51.071683,-17.49
2026-06-18 11:35:51.079253,-45.26
2026-06-18 11:35:51.087230,-43.04
2026-06-18 11:35:51.095879,-2.03
2026-06-18 11:35:51.099780,25.84
2026-06-18 11:35:51.104816,20.73
2026-06-18 11:35:51.118678,-15.19
2026-06-18 11:35:51.118678,-25.06
2026-06-18 11:35:51.134117,7.9
2026-06-18 11:35:51.136110,44.67
2026-06-18 11:35:51.149069,35.49
2026-06-18 11:35:51.149069,2.48
2026-06-18 11:35:51.164794,-24.4
2026-06-18 11:35:51.164794,-18.3
2026-06-18 11:35:51.180627,-19.21
2026-06-18 11:35:51.180627,-26.08
2026-06-18 11:35:51.196630,-16.99
2026-06-18 11:35:51.198628,-3.97
2026-06-18 11:35:51.212395,11.97
2026-06-18 11:35:51.215280,61.66
2026-06-18 11:35:51.228793,119.06
2026-06-18 11:35:51.231156,117.47
2026-06-18 11:35:51.231156,42.26
2026-06-18 11:35:51.249392,-40.54
2026-06-18 11:35:51.249392,-62.23
2026-06-18 11:35:51.265239,-42.01
2026-06-18 11:35:51.265239,-16.93
2026-06-18 11:35:51.282987,-9.88
2026-06-18 11:35:51.290503,-6.85
2026-06-18 11:35:51.297565,-20.74
2026-06-18 11:35:51.297565,-40.54
2026-06-18 11:35:51.313908,-48.29
2026-06-18 11:35:51.314446,-8.25
2026-06-18 11:35:51.329553,20.64
2026-06-18 11:35:51.336180,24.52
2026-06-18 11:35:51.345488,9.47
2026-06-18 11:35:51.349700,4.45
2026-06-18 11:35:51.349700,28.31
2026-06-18 11:35:51.363692,36.13
2026-06-18 11:35:51.363692,33.96
2026-06-18 11:35:51.383534,12.89
2026-06-18 11:35:51.388593,-3.09
2026-06-18 11:35:51.397001,-10.04
2026-06-18 11:35:51.397001,-18.95
2026-06-18 11:35:51.413845,-25.82
2026-06-18 11:35:51.413845,-11.76
2026-06-18 11:35:51.430173,-6.73
2026-06-18 11:35:51.430173,-11.67
2026-06-18 11:35:51.446176,-21.56
2026-06-18 11:35:51.454376,-9.51
2026-06-18 11:35:51.462373,5.46
2026-06-18 11:35:51.470362,8.42
2026-06-18 11:35:51.477375,24.3
2026-06-18 11:35:51.485634,21.19
2026-06-18 11:35:51.493407,0.19
2026-06-18 11:35:51.498663,-16.73
2026-06-18 11:35:51.498663,-2.71
2026-06-18 11:35:51.514702,14.22
2026-06-18 11:35:51.514702,-1.77
2026-06-18 11:35:51.530707,-41.57
2026-06-18 11:35:51.530707,-51.31
2026-06-18 11:35:51.547321,-28.17
2026-06-18 11:35:51.551287,0.83
2026-06-18 11:35:51.563897,-26.04
2026-06-18 11:35:51.563897,-65.71
2026-06-18 11:35:51.579885,-81.3
2026-06-18 11:35:51.580838,-58.01
2026-06-18 11:35:51.595353,-33.84
2026-06-18 11:35:51.603308,-29.69
2026-06-18 11:35:51.607434,-11.63
2026-06-18 11:35:51.614221,22.26
2026-06-18 11:35:51.614221,51.0
2026-06-18 11:35:51.630318,43.78
2026-06-18 11:35:51.630318,17.69
2026-06-18 11:35:51.647605,-0.31
2026-06-18 11:35:51.651378,-5.28
2026-06-18 11:35:51.664938,-5.25
2026-06-18 11:35:51.664938,-14.18
2026-06-18 11:35:51.680997,-46.95
2026-06-18 11:35:51.689067,-59.65
2026-06-18 11:35:51.696074,-36.46
2026-06-18 11:35:51.704436,2.52
2026-06-18 11:35:51.712559,9.48
2026-06-18 11:35:51.720092,-15.45
2026-06-18 11:35:51.728291,-26.31
2026-06-18 11:35:51.735744,-4.29
2026-06-18 11:35:51.736818,34.53
2026-06-18 11:35:51.751514,40.33
2026-06-18 11:35:51.751514,23.21
2026-06-18 11:35:51.763556,-6.75
2026-06-18 11:35:51.763556,-32.59
2026-06-18 11:35:51.781039,-33.42
2026-06-18 11:35:51.790689,-15.34
2026-06-18 11:35:51.796737,-19.25
2026-06-18 11:35:51.803863,-24.13
2026-06-18 11:35:51.814073,-4.1
2026-06-18 11:35:51.822050,26.76
2026-06-18 11:35:51.829604,17.67
2026-06-18 11:35:51.830902,-19.23
2026-06-18 11:35:51.845326,-29.09
2026-06-18 11:35:51.851945,0.91
2026-06-18 11:35:51.851945,41.7
2026-06-18 11:35:51.863293,49.45
2026-06-18 11:35:51.863293,40.25
2026-06-18 11:35:51.880100,21.14
2026-06-18 11:35:51.880100,-15.78
2026-06-18 11:35:51.896846,-52.51
2026-06-18 11:35:51.896846,-57.23
2026-06-18 11:35:51.913137,-43.01
2026-06-18 11:35:51.924078,-20.9
2026-06-18 11:35:51.930436,-6.87
2026-06-18 11:35:51.938946,-13.8
2026-06-18 11:35:51.946935,-34.63
2026-06-18 11:35:51.952047,-37.44
2026-06-18 11:35:51.961972,-24.32
2026-06-18 11:35:51.964645,-6.28
2026-06-18 11:35:51.978718,27.58
2026-06-18 11:35:51.981652,55.3
2026-06-18 11:35:51.981652,54.03
2026-06-18 11:35:51.997661,13.96
2026-06-18 11:35:51.997661,-21.93
2026-06-18 11:35:52.014381,-21.82
2026-06-18 11:35:52.014381,-8.78
2026-06-18 11:35:52.030629,-26.64
2026-06-18 11:35:52.030629,-59.35
2026-06-18 11:35:52.048182,-69.0
2026-06-18 11:35:52.052558,-35.82
2026-06-18 11:35:52.063209,-8.78
2026-06-18 11:35:52.064522,13.16
2026-06-18 11:35:52.079853,21.05
2026-06-18 11:35:52.080805,19.95
2026-06-18 11:35:52.095618,30.8
2026-06-18 11:35:52.098041,41.59
2026-06-18 11:35:52.111721,29.44
2026-06-18 11:35:52.114366,-11.5
2026-06-18 11:35:52.114366,-21.39
2026-06-18 11:35:52.134694,3.59
2026-06-18 11:35:52.138885,28.44
2026-06-18 11:35:52.149149,18.35
2026-06-18 11:35:52.155124,-9.6
2026-06-18 11:35:52.163704,-22.49
2026-06-18 11:35:52.163704,-25.36
2026-06-18 11:35:52.180662,-47.12
2026-06-18 11:35:52.180662,-31.96
2026-06-18 11:35:52.196718,43.82
2026-06-18 11:35:52.198742,118.22
2026-06-18 11:35:52.212800,111.66
2026-06-18 11:35:52.214376,15.58
2026-06-18 11:35:52.228616,-64.09
2026-06-18 11:35:52.230633,-63.77
2026-06-18 11:35:52.230633,-18.68
2026-06-18 11:35:52.246550,-14.61
2026-06-18 11:35:52.253385,-44.38
2026-06-18 11:35:52.263624,-66.05
2026-06-18 11:35:52.263624,-63.73
2026-06-18 11:35:52.281102,-63.41
2026-06-18 11:35:52.281102,-42.2
2026-06-18 11:35:52.297728,-20.1
2026-06-18 11:35:52.306597,-8.06
2026-06-18 11:35:52.313867,-13.99
2026-06-18 11:35:52.319246,-14.91
2026-06-18 11:35:52.329129,0.09
2026-06-18 11:35:52.336857,12.03
2026-06-18 11:35:52.345262,-2.96
2026-06-18 11:35:52.353193,-19.86
2026-06-18 11:35:52.361508,3.13
2026-06-18 11:35:52.363571,42.91
2026-06-18 11:35:52.363571,54.64
2026-06-18 11:35:52.379971,51.38
2026-06-18 11:35:52.379971,32.22
2026-06-18 11:35:52.396936,0.21
2026-06-18 11:35:52.396936,-11.73
2026-06-18 11:35:52.414444,-8.68
2026-06-18 11:35:52.414444,-1.68
2026-06-18 11:35:52.431444,-3.66
2026-06-18 11:35:52.435884,19.25
2026-06-18 11:35:52.446445,55.97
2026-06-18 11:35:52.455019,79.57
2026-06-18 11:35:52.462098,59.27
2026-06-18 11:35:52.468074,17.18
2026-06-18 11:35:52.478742,17.1
2026-06-18 11:35:52.481758,28.95
2026-06-18 11:35:52.494827,4.93
2026-06-18 11:35:52.497677,-34.9
2026-06-18 11:35:52.497677,-38.7
2026-06-18 11:35:52.514490,-5.68
2026-06-18 11:35:52.514490,19.23
2026-06-18 11:35:52.532444,5.2
2026-06-18 11:35:52.539181,-21.69
2026-06-18 11:35:52.548416,-35.51
2026-06-18 11:35:52.556155,-13.44
2026-06-18 11:35:52.564050,14.48
2026-06-18 11:35:52.571987,34.31
2026-06-18 11:35:52.579400,30.16
2026-06-18 11:35:52.581308,10.11
2026-06-18 11:35:52.595694,24.98
2026-06-18 11:35:52.598565,65.65
2026-06-18 11:35:52.611422,68.31
2026-06-18 11:35:52.614444,23.19
2026-06-18 11:35:52.614444,-14.73
2026-06-18 11:35:52.630254,-5.7
2026-06-18 11:35:52.630254,42.08
2026-06-18 11:35:52.648039,62.77
2026-06-18 11:35:52.655769,51.51
2026-06-18 11:35:52.664183,26.38
2026-06-18 11:35:52.664183,21.27
2026-06-18 11:35:52.681518,9.22
2026-06-18 11:35:52.686872,-2.76
2026-06-18 11:35:52.696422,2.23
2026-06-18 11:35:52.698346,27.09
2026-06-18 11:35:52.711957,52.83
2026-06-18 11:35:52.715147,54.55
2026-06-18 11:35:52.728059,25.42
2026-06-18 11:35:52.736032,-2.56
2026-06-18 11:35:52.743787,7.4
2026-06-18 11:35:52.746739,29.25
2026-06-18 11:35:52.756323,32.09
2026-06-18 11:35:52.763892,8.05
2026-06-18 11:35:52.763892,-11.89
2026-06-18 11:35:52.782194,-11.83
2026-06-18 11:35:52.790619,13.1
2026-06-18 11:35:52.798147,14.03
2026-06-18 11:35:52.798147,-10.91
2026-06-18 11:35:52.813689,-18.82
2026-06-18 11:35:52.820315,29.04
2026-06-18 11:35:52.829666,65.71
2026-06-18 11:35:52.833175,58.41
2026-06-18 11:35:52.845027,48.17
2026-06-18 11:35:52.849117,54.9
2026-06-18 11:35:52.861392,63.58
2026-06-18 11:35:52.863833,32.41
2026-06-18 11:35:52.863833,-33.42
2026-06-18 11:35:52.884237,-82.01
2026-06-18 11:35:52.892295,-76.62
2026-06-18 11:35:52.899385,-44.4
2026-06-18 11:35:52.904753,-14.33
2026-06-18 11:35:52.914624,1.66
2026-06-18 11:35:52.914624,3.65
2026-06-18 11:35:52.930598,-8.31
2026-06-18 11:35:52.934788,-10.26
2026-06-18 11:35:52.946207,-18.17
2026-06-18 11:35:52.948833,-29.02
2026-06-18 11:35:52.962816,-5.0
2026-06-18 11:35:52.970226,18.91
2026-06-18 11:35:52.979088,18.81
2026-06-18 11:35:52.986068,-7.15
2026-06-18 11:35:52.994065,-32.99
2026-06-18 11:35:53.001197,-38.79
2026-06-18 11:35:53.009338,-22.68
2026-06-18 11:35:53.014200,-2.66
2026-06-18 11:35:53.014200,5.31
2026-06-18 11:35:53.032440,-3.67
2026-06-18 11:35:53.035653,-6.64
2026-06-18 11:35:53.047523,-16.56
2026-06-18 11:35:53.047523,-14.48
2026-06-18 11:35:53.063552,-3.47
2026-06-18 11:35:53.063552,1.53
2026-06-18 11:35:53.079623,5.5
2026-06-18 11:35:53.082045,23.38
2026-06-18 11:35:53.095064,47.15
2026-06-18 11:35:53.098109,52.88
2026-06-18 11:35:53.111688,29.73
2026-06-18 11:35:53.114660,-10.22
2026-06-18 11:35:53.114660,-39.02
2026-06-18 11:35:53.134047,-22.91
2026-06-18 11:35:53.136111,42.88
2026-06-18 11:35:53.147841,94.4
2026-06-18 11:35:53.157574,95.92
2026-06-18 11:35:53.164377,25.79
2026-06-18 11:35:53.169568,-55.93
2026-06-18 11:35:53.181132,-80.52
2026-06-18 11:35:53.181132,-33.36
2026-06-18 11:35:53.197056,23.53
2026-06-18 11:35:53.199002,37.34
2026-06-18 11:35:53.212525,24.22
2026-06-18 11:35:53.216560,-10.73
2026-06-18 11:35:53.228447,-36.55
2026-06-18 11:35:53.235858,-33.38
2026-06-18 11:35:53.235858,-14.31
2026-06-18 11:35:53.246865,-7.27
2026-06-18 11:35:53.257996,-18.18
2026-06-18 11:35:53.263420,-45.95
2026-06-18 11:35:53.263420,-58.65
2026-06-18 11:35:53.280514,-44.43
2026-06-18 11:35:53.280514,-10.38
2026-06-18 11:35:53.297855,-4.36
2026-06-18 11:35:53.297855,-21.25
2026-06-18 11:35:53.313226,-25.12
2026-06-18 11:35:53.321660,4.85
2026-06-18 11:35:53.329542,31.69
2026-06-18 11:35:53.333599,27.56
2026-06-18 11:35:53.344537,19.46
2026-06-18 11:35:53.349791,17.37
2026-06-18 11:35:53.361149,18.28
2026-06-18 11:35:53.363627,-9.67
2026-06-18 11:35:53.363627,-32.51
2026-06-18 11:35:53.379874,-29.36
2026-06-18 11:35:53.379874,-4.34
2026-06-18 11:35:53.396662,-7.3
2026-06-18 11:35:53.396662,-21.2
2026-06-18 11:35:53.415435,-17.11
2026-06-18 11:35:53.423556,17.8
2026-06-18 11:35:53.430474,33.63
2026-06-18 11:35:53.438851,8.59
2026-06-18 11:35:53.447000,-39.22
2026-06-18 11:35:53.455090,-53.94
2026-06-18 11:35:53.462384,-28.8
2026-06-18 11:35:53.467495,-14.73
2026-06-18 11:35:53.478542,-20.62
2026-06-18 11:35:53.481574,-21.51
2026-06-18 11:35:53.494518,-15.44
2026-06-18 11:35:53.497031,-13.37
2026-06-18 11:35:53.497031,-1.36
2026-06-18 11:35:53.513806,3.62
2026-06-18 11:35:53.513806,21.51
2026-06-18 11:35:53.532357,19.41
2026-06-18 11:35:53.540858,19.32
2026-06-18 11:35:53.547156,20.22
2026-06-18 11:35:53.547156,36.03
2026-06-18 11:35:53.564085,52.77
2026-06-18 11:35:53.564085,64.45
2026-06-18 11:35:53.579366,61.14
2026-06-18 11:35:53.580934,33.97
2026-06-18 11:35:53.595011,-1.03
2026-06-18 11:35:53.598040,-12.96
2026-06-18 11:35:53.611523,-7.92
2026-06-18 11:35:53.614122,-7.88
2026-06-18 11:35:53.614122,-31.72
2026-06-18 11:35:53.630380,-69.37
2026-06-18 11:35:53.630380,-76.99
2026-06-18 11:35:53.647279,-54.71
2026-06-18 11:35:53.647279,-10.66
2026-06-18 11:35:53.663730,12.28
2026-06-18 11:35:53.663730,16.2
2026-06-18 11:35:53.681353,16.12
2026-06-18 11:35:53.681353,5.09
2026-06-18 11:35:53.696999,-23.79
2026-06-18 11:35:53.697924,-39.59
2026-06-18 11:35:53.712622,-29.44
2026-06-18 11:35:53.714481,-15.37
2026-06-18 11:35:53.728297,-9.32
2026-06-18 11:35:53.731638,-15.24
2026-06-18 11:35:53.745204,-24.12
2026-06-18 11:35:53.764598,-25.99
2026-06-18 11:35:53.766611,-21.88
2026-06-18 11:35:53.766611,-32.72
2026-06-18 11:35:53.768623,-30.56
2026-06-18 11:35:53.781814,-21.45
2026-06-18 11:35:53.781814,-6.42
2026-06-18 11:35:53.797010,-7.39
2026-06-18 11:35:53.797010,-2.37
2026-06-18 11:35:53.813862,35.45
2026-06-18 11:35:53.813862,61.14
2026-06-18 11:35:53.829817,37.95
2026-06-18 11:35:53.830825,-23.93
2026-06-18 11:35:53.845508,-53.66
2026-06-18 11:35:53.852677,-20.56
2026-06-18 11:35:53.860514,18.35
2026-06-18 11:35:53.868519,15.27
2026-06-18 11:35:53.873497,-6.69
2026-06-18 11:35:53.880243,-23.57
2026-06-18 11:35:53.880243,-14.5
2026-06-18 11:35:53.897204,-3.48
2026-06-18 11:35:53.897204,17.43
2026-06-18 11:35:53.914261,7.39
2026-06-18 11:35:53.914261,0.39
2026-06-18 11:35:53.931151,18.3
2026-06-18 11:35:53.936910,23.18
2026-06-18 11:35:53.946817,14.11
2026-06-18 11:35:53.946817,-3.87
2026-06-18 11:35:53.962481,-2.85
2026-06-18 11:35:53.964060,-2.84
2026-06-18 11:35:53.977690,-39.64
2026-06-18 11:35:53.980469,-65.31
2026-06-18 11:35:53.980469,-24.19
2026-06-18 11:35:53.997358,38.61
2026-06-18 11:35:53.997358,51.36
2026-06-18 11:35:54.013796,14.28
2026-06-18 11:35:54.013796,7.25
2026-06-18 11:35:54.032381,16.17
2026-06-18 11:35:54.035228,43.95
2026-06-18 11:35:54.046285,53.68
2026-06-18 11:35:54.046285,48.43
2026-06-18 11:35:54.063543,40.23
2026-06-18 11:35:54.071485,-2.76
2026-06-18 11:35:54.079719,-55.48
2026-06-18 11:35:54.087706,-69.13
2026-06-18 11:35:54.095481,-37.94
2026-06-18 11:35:54.097130,-12.87
2026-06-18 11:35:54.111120,-19.77
2026-06-18 11:35:54.113958,-48.53
2026-06-18 11:35:54.113958,-21.42
2026-06-18 11:35:54.130344,77.19
2026-06-18 11:35:54.130344,152.42
2026-06-18 11:35:54.146685,110.87
2026-06-18 11:35:54.146685,10.81
2026-06-18 11:35:54.163218,-60.88
2026-06-18 11:35:54.163218,-59.58
2026-06-18 11:35:54.180055,-20.48
2026-06-18 11:35:54.180055,3.5
2026-06-18 11:35:54.196295,12.44
2026-06-18 11:35:54.197311,10.39
2026-06-18 11:35:54.212057,-15.53
2026-06-18 11:35:54.213825,-43.32
2026-06-18 11:35:54.227766,-35.14
2026-06-18 11:35:54.235545,-14.07
2026-06-18 11:35:54.235545,-5.04
2026-06-18 11:35:54.246282,-23.92
2026-06-18 11:35:54.246282,-18.83
2026-06-18 11:35:54.263718,-4.81
2026-06-18 11:35:54.263718,20.09
2026-06-18 11:35:54.283297,20.99
2026-06-18 11:35:54.290380,20.88
2026-06-18 11:35:54.296540,40.68
2026-06-18 11:35:54.296540,46.45
2026-06-18 11:35:54.313008,13.38
2026-06-18 11:35:54.313008,-16.54
2026-06-18 11:35:54.329305,-4.52
2026-06-18 11:35:54.329305,34.31
2026-06-18 11:35:54.345314,37.13
2026-06-18 11:35:54.349385,-4.85
2026-06-18 11:35:54.360953,-35.67
2026-06-18 11:35:54.366716,-36.49
2026-06-18 11:35:54.374471,-21.38
2026-06-18 11:35:54.383156,-18.29
2026-06-18 11:35:54.383156,-2.28
2026-06-18 11:35:54.396233,1.71
2026-06-18 11:35:54.396233,11.66
2026-06-18 11:35:54.413872,22.54
2026-06-18 11:35:54.413872,13.47
2026-06-18 11:35:54.429912,-15.45
2026-06-18 11:35:54.429912,-49.2
2026-06-18 11:35:54.446761,-57.91
2026-06-18 11:35:54.446761,-30.75
2026-06-18 11:35:54.462552,3.23
2026-06-18 11:35:54.463581,-6.74
2026-06-18 11:35:54.477813,-42.52
2026-06-18 11:35:54.485554,-60.22
2026-06-18 11:35:54.493369,-45.99
2026-06-18 11:35:54.501613,-49.74
2026-06-18 11:35:54.509630,-67.4
2026-06-18 11:35:54.513630,-82.98
2026-06-18 11:35:54.513630,-42.77
2026-06-18 11:35:54.532506,-10.72
2026-06-18 11:35:54.535418,-1.71
2026-06-18 11:35:54.546491,0.29
2026-06-18 11:35:54.546491,34.12
2026-06-18 11:35:54.563826,55.84
2026-06-18 11:35:54.568998,45.61
2026-06-18 11:35:54.578972,12.55
2026-06-18 11:35:54.587971,6.51
2026-06-18 11:35:54.594690,5.49
2026-06-18 11:35:54.597655,-12.45
2026-06-18 11:35:54.611474,-27.31
2026-06-18 11:35:54.618920,-22.2
2026-06-18 11:35:54.622971,-18.11
2026-06-18 11:35:54.630167,-22.0
2026-06-18 11:35:54.630167,-8.95
2026-06-18 11:35:54.646479,-3.94
2026-06-18 11:35:54.646479,0.06
2026-06-18 11:35:54.664220,19.96
2026-06-18 11:35:54.669418,51.7
2026-06-18 11:35:54.680221,58.41
2026-06-18 11:35:54.680221,27.27
2026-06-18 11:35:54.696596,-7.69
2026-06-18 11:35:54.697601,6.28
2026-06-18 11:35:54.712432,42.07
2026-06-18 11:35:54.714434,41.86
2026-06-18 11:35:54.728037,22.74
2026-06-18 11:35:54.733581,7.71
2026-06-18 11:35:54.744235,9.66
2026-06-18 11:35:54.746235,5.63
2026-06-18 11:35:54.746235,9.58
2026-06-18 11:35:54.763294,10.53
2026-06-18 11:35:54.763294,40.33
2026-06-18 11:35:54.780342,67.98
2026-06-18 11:35:54.780342,42.77
2026-06-18 11:35:54.795556,-19.13
2026-06-18 11:35:54.795556,-53.86
2026-06-18 11:35:54.813716,-33.69
2026-06-18 11:35:54.821576,11.25
2026-06-18 11:35:54.829045,28.11
2026-06-18 11:35:54.837496,16.03
2026-06-18 11:35:54.845102,12.96
2026-06-18 11:35:54.847117,20.86
2026-06-18 11:35:54.861540,-0.14
2026-06-18 11:35:54.864134,-40.94
2026-06-18 11:35:54.875140,-42.72
2026-06-18 11:35:54.882233,-20.62
2026-06-18 11:35:54.890622,18.29
2026-06-18 11:35:54.896788,28.15
2026-06-18 11:35:54.896788,11.09
2026-06-18 11:35:54.913955,8.05
2026-06-18 11:35:54.913955,23.93
2026-06-18 11:35:54.930761,25.8
2026-06-18 11:35:54.930761,21.69
2026-06-18 11:35:54.946548,11.63
2026-06-18 11:35:54.954150,2.62
2026-06-18 11:35:54.962003,-4.36
2026-06-18 11:35:54.970298,-11.3
2026-06-18 11:35:54.977608,-26.17
2026-06-18 11:35:54.982797,-30.02
2026-06-18 11:35:54.994490,-9.97
2026-06-18 11:35:54.997948,27.89
2026-06-18 11:35:54.997948,56.61
2026-06-18 11:35:55.013182,30.46
2026-06-18 11:35:55.013182,-10.49
2026-06-18 11:35:55.030088,-18.4
2026-06-18 11:35:55.030088,9.55
2026-06-18 11:35:55.047338,30.4
2026-06-18 11:35:55.047338,7.36
2026-06-18 11:35:55.064119,-33.47
2026-06-18 11:35:55.064119,-59.17
2026-06-18 11:35:55.079887,-55.89
2026-06-18 11:35:55.080611,-42.68
2026-06-18 11:35:55.095628,-41.47
2026-06-18 11:35:55.097344,-36.29
2026-06-18 11:35:55.111332,-23.17
2026-06-18 11:35:55.114093,-10.12
2026-06-18 11:35:55.114093,7.84
2026-06-18 11:35:55.129801,7.8
2026-06-18 11:35:55.129801,22.69
2026-06-18 11:35:55.149186,36.51
2026-06-18 11:35:55.150108,48.26
2026-06-18 11:35:55.163213,42.05
2026-06-18 11:35:55.163213,25.92
2026-06-18 11:35:55.179805,5.89
2026-06-18 11:35:55.179805,-20.01
2026-06-18 11:35:55.195886,0.99
2026-06-18 11:35:55.202808,88.54
2026-06-18 11:35:55.211650,123.92
2026-06-18 11:35:55.212645,47.68
2026-06-18 11:35:55.227314,-65.99
2026-06-18 11:35:55.229242,-111.43
2026-06-18 11:35:55.243829,-76.05
2026-06-18 11:35:55.249925,-46.81
2026-06-18 11:35:55.249925,-44.59
2026-06-18 11:35:55.263530,-28.44
2026-06-18 11:35:55.263530,1.55
2026-06-18 11:35:55.279169,-12.39
2026-06-18 11:35:55.279169,-38.2
2026-06-18 11:35:55.295899,-16.12
2026-06-18 11:35:55.295899,12.82
2026-06-18 11:35:55.312935,5.79
2026-06-18 11:35:55.318619,-16.13
2026-06-18 11:35:55.328512,-38.93
2026-06-18 11:35:55.328512,-51.67
2026-06-18 11:35:55.344900,-44.45
2026-06-18 11:35:55.352263,-21.34
2026-06-18 11:35:55.360300,9.61
2026-06-18 11:35:55.367884,7.57
2026-06-18 11:35:55.372886,0.57
2026-06-18 11:35:55.378446,26.43
2026-06-18 11:35:55.391692,68.09
2026-06-18 11:35:55.396818,54.82
2026-06-18 11:35:55.407347,33.65
2026-06-18 11:35:55.412423,47.41
2026-06-18 11:35:55.412423,73.04
2026-06-18 11:35:55.428748,48.8
2026-06-18 11:35:55.428748,-12.14
2026-06-18 11:35:55.446558,-54.87
2026-06-18 11:35:55.449601,-30.71
2026-06-18 11:35:55.462437,2.28
2026-06-18 11:35:55.463952,8.24
2026-06-18 11:35:55.477074,4.21
2026-06-18 11:35:55.482095,0.21
2026-06-18 11:35:55.493729,-2.77
2026-06-18 11:35:55.495481,-16.69
2026-06-18 11:35:55.495481,-26.56
2026-06-18 11:35:55.512177,-40.35
2026-06-18 11:35:55.512177,-42.14
2026-06-18 11:35:55.528743,-30.99
2026-06-18 11:35:55.528743,-13.92
2026-06-18 11:35:55.548187,-7.88
2026-06-18 11:35:55.555185,-6.84
2026-06-18 11:35:55.562515,2.15
2026-06-18 11:35:55.571214,23.03
2026-06-18 11:35:55.578878,15.95
2026-06-18 11:35:55.586956,-12.98
2026-06-18 11:35:55.594849,-20.88
2026-06-18 11:35:55.595594,-1.87
2026-06-18 11:35:55.610487,10.08
2026-06-18 11:35:55.612485,-13.85
2026-06-18 11:35:55.612485,-11.79
2026-06-18 11:35:55.628396,24.09
2026-06-18 11:35:55.628396,48.84
2026-06-18 11:35:55.647763,28.7
2026-06-18 11:35:55.647763,-10.25
2026-06-18 11:35:55.664158,-31.09
2026-06-18 11:35:55.664158,-24.97
2026-06-18 11:35:55.679059,-15.89
2026-06-18 11:35:55.679059,-13.82
2026-06-18 11:35:55.695871,-7.78
2026-06-18 11:35:55.695871,-1.77
2026-06-18 11:35:55.712424,-24.65
2026-06-18 11:35:55.712424,-56.36
2026-06-18 11:35:55.727047,-36.18
2026-06-18 11:35:55.735322,13.75
2026-06-18 11:35:55.743580,48.51
2026-06-18 11:35:55.747835,30.35
2026-06-18 11:35:55.747835,24.23
2026-06-18 11:35:55.764449,49.98
2026-06-18 11:35:55.764449,83.56
2026-06-18 11:35:55.778782,54.29
2026-06-18 11:35:55.778782,5.26
2026-06-18 11:35:55.795945,-5.71
2026-06-18 11:35:55.799768,-4.69
2026-06-18 11:35:55.811956,-41.48
2026-06-18 11:35:55.816857,-70.13
2026-06-18 11:35:55.828874,-68.78
2026-06-18 11:35:55.835195,-51.52
2026-06-18 11:35:55.845194,-33.35
2026-06-18 11:35:55.845194,-23.24
2026-06-18 11:35:55.860424,-13.17
2026-06-18 11:35:55.864772,-2.16
2026-06-18 11:35:55.864772,1.83
2026-06-18 11:35:55.878205,-2.16
2026-06-18 11:35:55.878205,16.76
2026-06-18 11:35:55.899632,42.54
2026-06-18 11:35:55.906035,52.28
2026-06-18 11:35:55.912083,34.11
2026-06-18 11:35:55.912083,-0.89
2026-06-18 11:35:55.928837,-27.75
2026-06-18 11:35:55.928837,-6.71
2026-06-18 11:35:55.946702,1.28
2026-06-18 11:35:55.949735,-24.6
2026-06-18 11:35:55.962333,-43.38
2026-06-18 11:35:55.965098,-25.25
2026-06-18 11:35:55.977113,-0.25
2026-06-18 11:35:55.985620,-7.21
2026-06-18 11:35:55.993549,2.77
2026-06-18 11:35:56.000854,41.56
2026-06-18 11:35:56.008868,68.22
2026-06-18 11:35:56.013870,33.06
2026-06-18 11:35:56.021566,-22.83
2026-06-18 11:35:56.029030,-35.65
2026-06-18 11:35:56.029030,-0.65
2026-06-18 11:35:56.044652,15.28
2026-06-18 11:35:56.044652,-8.68
2026-06-18 11:35:56.062179,-39.48
2026-06-18 11:35:56.065279,-31.33
2026-06-18 11:35:56.078937,2.66
2026-06-18 11:35:56.078937,28.52
2026-06-18 11:35:56.094790,34.35
2026-06-18 11:35:56.102740,11.29
2026-06-18 11:35:56.110707,-2.7
2026-06-18 11:35:56.117781,-6.66
2026-06-18 11:35:56.122784,6.3
2026-06-18 11:35:56.128568,3.29
2026-06-18 11:35:56.128568,5.26
2026-06-18 11:35:56.148753,13.19
2026-06-18 11:35:56.148753,25.07
2026-06-18 11:35:56.165371,19.97
2026-06-18 11:35:56.165371,-5.01
2026-06-18 11:35:56.178879,-44.78
2026-06-18 11:35:56.178879,-57.49
2026-06-18 11:35:56.195623,-45.26
2026-06-18 11:35:56.195623,-22.15
2026-06-18 11:35:56.212005,-3.14
2026-06-18 11:35:56.212005,7.82
2026-06-18 11:35:56.227979,39.62
2026-06-18 11:35:56.228983,75.25
2026-06-18 11:35:56.243685,82.83
2026-06-18 11:35:56.249771,36.65
2026-06-18 11:35:56.249771,18.55
2026-06-18 11:35:56.265528,43.33
2026-06-18 11:35:56.265528,69.98
2026-06-18 11:35:56.278334,44.76
2026-06-18 11:35:56.278334,-15.17
2026-06-18 11:35:56.295208,-74.79
2026-06-18 11:35:56.295208,-62.48
2026-06-18 11:35:56.313314,-21.37
2026-06-18 11:35:56.321292,10.58
2026-06-18 11:35:56.329217,10.53
2026-06-18 11:35:56.337219,-4.45
2026-06-18 11:35:56.344687,-27.32
2026-06-18 11:35:56.345264,-32.15
2026-06-18 11:35:56.360105,2.83
2026-06-18 11:35:56.365758,24.71
2026-06-18 11:35:56.365758,32.54
2026-06-18 11:35:56.378318,34.37
2026-06-18 11:35:56.378318,31.21
2026-06-18 11:35:56.394949,34.04
2026-06-18 11:35:56.394949,28.9
2026-06-18 11:35:56.414456,-10.05
2026-06-18 11:35:56.421160,-29.9
2026-06-18 11:35:56.430993,-15.82
2026-06-18 11:35:56.430993,20.08
2026-06-18 11:35:56.446520,43.86
2026-06-18 11:35:56.454155,32.69
2026-06-18 11:35:56.462165,7.65
2026-06-18 11:35:56.469269,-14.27
2026-06-18 11:35:56.477258,-3.26
2026-06-18 11:35:56.482265,15.66
2026-06-18 11:35:56.493548,43.45
2026-06-18 11:35:56.495542,54.17
2026-06-18 11:35:56.495542,44.95
2026-06-18 11:35:56.511747,23.83
2026-06-18 11:35:56.511747,-2.16
2026-06-18 11:35:56.528796,-33.0
2026-06-18 11:35:56.528796,-36.81
2026-06-18 11:35:56.545513,-28.67
2026-06-18 11:35:56.545513,-4.64
2026-06-18 11:35:56.561746,2.35
2026-06-18 11:35:56.565983,-22.54
2026-06-18 11:35:56.579188,-49.29
2026-06-18 11:35:56.587125,-37.11
2026-06-18 11:35:56.595032,4.87
2026-06-18 11:35:56.595032,21.76
2026-06-18 11:35:56.610099,10.71
2026-06-18 11:35:56.615230,3.69
2026-06-18 11:35:56.615230,11.63
2026-06-18 11:35:56.628432,19.53
2026-06-18 11:35:56.635487,9.48
2026-06-18 11:35:56.649551,-10.47
2026-06-18 11:35:56.649551,-8.42
2026-06-18 11:35:56.661579,-4.4
2026-06-18 11:35:56.666045,1.59
2026-06-18 11:35:56.678684,12.53
2026-06-18 11:35:56.678684,18.44
2026-06-18 11:35:56.695699,-1.56
2026-06-18 11:35:56.700727,-22.44
2026-06-18 11:35:56.712160,-7.41
2026-06-18 11:35:56.713039,20.49
2026-06-18 11:35:56.728021,27.35
2026-06-18 11:35:56.732764,6.32
2026-06-18 11:35:56.743548,19.22
2026-06-18 11:35:56.745402,65.89
2026-06-18 11:35:56.745402,81.48
2026-06-18 11:35:56.766189,30.33
2026-06-18 11:35:56.766189,-18.57
2026-06-18 11:35:56.778933,-30.42
2026-06-18 11:35:56.778933,-6.39
2026-06-18 11:35:56.796961,-1.38
2026-06-18 11:35:56.796961,-21.28
2026-06-18 11:35:56.812407,-37.09
2026-06-18 11:35:56.812407,-18.0
2026-06-18 11:35:56.829153,13.93
2026-06-18 11:35:56.829153,14.86
2026-06-18 11:35:56.844898,6.82
2026-06-18 11:35:56.850055,1.81
2026-06-18 11:35:56.860469,27.67
2026-06-18 11:35:56.866238,54.4
2026-06-18 11:35:56.876771,41.19
2026-06-18 11:35:56.878801,-8.76
2026-06-18 11:35:56.878801,-31.6
2026-06-18 11:35:56.897998,-9.56
2026-06-18 11:35:56.900023,21.34
2026-06-18 11:35:56.912684,3.32
2026-06-18 11:35:56.921380,-33.51
2026-06-18 11:35:56.930607,-53.24
2026-06-18 11:35:56.930607,-29.1
2026-06-18 11:35:56.946568,-0.1
2026-06-18 11:35:56.947997,7.86
2026-06-18 11:35:56.962405,15.78
2026-06-18 11:35:56.970081,17.7
2026-06-18 11:35:56.977283,22.58
2026-06-18 11:35:56.982380,27.44
2026-06-18 11:35:56.993904,26.31
2026-06-18 11:35:56.995906,2.3
2026-06-18 11:35:56.995906,-25.57
2026-06-18 11:35:57.012188,-28.43
2026-06-18 11:35:57.012188,9.52
2026-06-18 11:35:57.029876,26.39
2026-06-18 11:35:57.029876,18.3
2026-06-18 11:35:57.047896,-2.69
2026-06-18 11:35:57.056034,-5.66
2026-06-18 11:35:57.063935,-1.65
2026-06-18 11:35:57.072275,-12.59
2026-06-18 11:35:57.079099,-28.44
2026-06-18 11:35:57.079929,-25.32
2026-06-18 11:35:57.094806,18.59
2026-06-18 11:35:57.095719,62.28
2026-06-18 11:35:57.110624,70.92
2026-06-18 11:35:57.113505,42.71
2026-06-18 11:35:57.127003,19.61
2026-06-18 11:35:57.129665,13.54
2026-06-18 11:35:57.129665,7.5
2026-06-18 11:35:57.149745,-14.43
2026-06-18 11:35:57.150711,-22.31
2026-06-18 11:35:57.162611,-9.27
2026-06-18 11:35:57.172779,3.71
2026-06-18 11:35:57.180638,-2.28
2026-06-18 11:35:57.186671,-14.2
2026-06-18 11:35:57.194859,-21.1
2026-06-18 11:35:57.200651,-18.01
2026-06-18 11:35:57.212175,1.98
2026-06-18 11:35:57.212175,25.85
2026-06-18 11:35:57.228126,41.64
2026-06-18 11:35:57.229434,30.49
2026-06-18 11:35:57.243864,1.48
2026-06-18 11:35:57.249928,-18.42
2026-06-18 11:35:57.260195,-28.28
2026-06-18 11:35:57.266852,-9.24
2026-06-18 11:35:57.272848,60.46
2026-06-18 11:35:57.278600,110.9
2026-06-18 11:35:57.278600,91.44
2026-06-18 11:35:57.295777,3.43
2026-06-18 11:35:57.295777,-62.26
2026-06-18 11:35:57.312821,-82.84
2026-06-18 11:35:57.318039,-67.51
2026-06-18 11:35:57.329990,-28.36
2026-06-18 11:35:57.329990,0.63
2026-06-18 11:35:57.345468,19.54
2026-06-18 11:35:57.346253,-10.41
2026-06-18 11:35:57.360064,-45.18
2026-06-18 11:35:57.362724,-30.03
2026-06-18 11:35:57.376319,21.86
2026-06-18 11:35:57.384095,49.61
2026-06-18 11:35:57.391429,35.43
2026-06-18 11:35:57.399431,-2.56
2026-06-18 11:35:57.405825,-13.49
2026-06-18 11:35:57.412263,-20.39
2026-06-18 11:35:57.412263,-36.21
2026-06-18 11:35:57.429566,-41.99
2026-06-18 11:35:57.438528,-19.89
2026-06-18 11:35:57.445047,7.07
2026-06-18 11:35:57.453304,10.02
2026-06-18 11:35:57.461856,18.92
2026-06-18 11:35:57.467197,57.63
2026-06-18 11:35:57.477747,93.17
2026-06-18 11:35:57.485180,80.76
2026-06-18 11:35:57.493104,34.59
2026-06-18 11:35:57.501403,9.54
2026-06-18 11:35:57.509432,23.42
2026-06-18 11:35:57.513768,19.32
2026-06-18 11:35:57.513768,-4.65
2026-06-18 11:35:57.528214,-27.51
2026-06-18 11:35:57.528214,-21.41
2026-06-18 11:35:57.548292,-15.33
2026-06-18 11:35:57.548292,-13.26
2026-06-18 11:35:57.561999,-14.19
2026-06-18 11:35:57.561999,-11.14
2026-06-18 11:35:57.578584,14.79
2026-06-18 11:35:57.578584,33.62
2026-06-18 11:35:57.594435,29.47
2026-06-18 11:35:57.602416,-1.52
2026-06-18 11:35:57.610723,-25.39
2026-06-18 11:35:57.617772,-32.23
2026-06-18 11:35:57.626597,-30.08
2026-06-18 11:35:57.629291,-34.9
2026-06-18 11:35:57.629291,-38.71
2026-06-18 11:35:57.649354,-40.51
2026-06-18 11:35:57.649354,-30.35
2026-06-18 11:35:57.661670,-46.12
2026-06-18 11:35:57.661670,-40.92
2026-06-18 11:35:57.678402,-9.87
2026-06-18 11:35:57.678402,33.96
2026-06-18 11:35:57.695589,67.62
2026-06-18 11:35:57.700718,66.29
2026-06-18 11:35:57.712235,43.07
2026-06-18 11:35:57.712235,8.03
2026-06-18 11:35:57.727961,-16.88
2026-06-18 11:35:57.729534,-20.78
2026-06-18 11:35:57.743759,0.22
2026-06-18 11:35:57.745774,14.15
2026-06-18 11:35:57.760043,12.09
2026-06-18 11:35:57.762723,-3.89
2026-06-18 11:35:57.774371,-9.84
2026-06-18 11:35:57.778873,-12.78
2026-06-18 11:35:57.778873,14.15
2026-06-18 11:35:57.796386,41.94
2026-06-18 11:35:57.796386,58.65
2026-06-18 11:35:57.813257,56.36
2026-06-18 11:35:57.821669,46.13
2026-06-18 11:35:57.828932,42.92
2026-06-18 11:35:57.837260,43.7
2026-06-18 11:35:57.845278,38.5
2026-06-18 11:35:57.849342,15.43
2026-06-18 11:35:57.860084,4.4
2026-06-18 11:35:57.863962,-8.55
2026-06-18 11:35:57.876887,-30.4
2026-06-18 11:35:57.878857,-53.13
2026-06-18 11:35:57.878857,-48.89
2026-06-18 11:35:57.896024,-8.84
2026-06-18 11:35:57.896024,60.85
2026-06-18 11:35:57.912556,87.41
2026-06-18 11:35:57.912556,77.02
2026-06-18 11:35:57.928248,68.68
2026-06-18 11:35:57.928248,79.28
2026-06-18 11:35:57.946101,79.88
2026-06-18 11:35:57.950248,52.61
2026-06-18 11:35:57.962208,27.48
2026-06-18 11:35:57.968070,23.36
2026-06-18 11:35:57.977591,35.18
2026-06-18 11:35:57.981297,17.1
2026-06-18 11:35:57.993496,-12.84
2026-06-18 11:35:58.001305,-5.81
2026-06-18 11:35:58.009122,28.05
2026-06-18 11:35:58.016686,39.85
2026-06-18 11:35:58.024692,50.59
2026-06-18 11:35:58.032578,67.26
2026-06-18 11:35:58.040597,111.7
2026-06-18 11:35:58.046648,137.01
2026-06-18 11:35:58.046648,131.35
2026-06-18 11:35:58.062498,103.83
2026-06-18 11:35:58.068615,83.41
2026-06-18 11:35:58.078963,71.05
2026-06-18 11:35:58.078963,58.75
2026-06-18 11:35:58.094528,56.47
2026-06-18 11:35:58.098777,46.24
2026-06-18 11:35:58.110534,39.04
2026-06-18 11:35:58.113490,37.85
2026-06-18 11:35:58.126833,57.56
2026-06-18 11:35:58.129494,64.24
2026-06-18 11:35:58.129494,50.98
2026-06-18 11:35:58.149403,78.59
2026-06-18 11:35:58.154319,177.7
2026-06-18 11:35:58.161895,234.52
2026-06-18 11:35:58.161895,179.61
2026-06-18 11:35:58.178687,41.41
2026-06-18 11:35:58.178687,-47.36
2026-06-18 11:35:58.196243,-35.18
2026-06-18 11:35:58.201659,-10.13
2026-06-18 11:35:58.212026,-42.91
2026-06-18 11:35:58.212026,-86.48
2026-06-18 11:35:58.228102,-64.16
2026-06-18 11:35:58.229432,-12.09
2026-06-18 11:35:58.243766,21.8
2026-06-18 11:35:58.251576,24.67
2026-06-18 11:35:58.259317,44.45
2026-06-18 11:35:58.263480,88.01
2026-06-18 11:35:58.273928,121.4
2026-06-18 11:35:58.279460,104.87
2026-06-18 11:35:58.279460,60.56
2026-06-18 11:35:58.295167,-0.43
2026-06-18 11:35:58.295167,-57.15
2026-06-18 11:35:58.312585,-85.72
2026-06-18 11:35:58.312585,-96.23
2026-06-18 11:35:58.328738,-110.68
2026-06-18 11:35:58.328738,-129.03
2026-06-18 11:35:58.345515,-136.34
2026-06-18 11:35:58.352514,-125.71
2026-06-18 11:35:58.360528,-115.13
2026-06-18 11:35:58.368550,-131.47
2026-06-18 11:35:58.376536,-158.67
2026-06-18 11:35:58.378950,-183.75
2026-06-18 11:35:58.378950,-187.81
2026-06-18 11:35:58.395224,-167.96
2026-06-18 11:35:58.395224,-145.23
2026-06-18 11:35:58.411825,-155.45
2026-06-18 11:35:58.411825,-168.6
2026-06-18 11:35:58.429540,-154.83
2026-06-18 11:35:58.437588,-129.18
2026-06-18 11:35:58.446373,-129.53
2026-06-18 11:35:58.449784,-142.81
2026-06-18 11:35:58.462071,-115.23
2026-06-18 11:35:58.462071,-83.81
2026-06-18 11:35:58.477741,-79.41
2026-06-18 11:35:58.485957,-78.02
2026-06-18 11:35:58.493535,-59.72
2026-06-18 11:35:58.501420,-33.55
2026-06-18 11:35:58.509163,-47.31
2026-06-18 11:35:58.514223,-90.85
2026-06-18 11:35:58.514223,-114.28
2026-06-18 11:35:58.528383,-116.69
2026-06-18 11:35:58.528383,-100.19
2026-06-18 11:35:58.548232,-91.73
2026-06-18 11:35:58.549356,-53.46
2026-06-18 11:35:58.562335,-17.37
2026-06-18 11:35:58.564831,-13.31
2026-06-18 11:35:58.578843,-16.23
2026-06-18 11:35:58.578843,-26.09
2026-06-18 11:35:58.594508,-4.07
2026-06-18 11:35:58.596227,14.85
2026-06-18 11:35:58.610210,-3.13
2026-06-18 11:35:58.613067,-38.94
2026-06-18 11:35:58.626911,-72.57
2026-06-18 11:35:58.629518,-74.2
2026-06-18 11:35:58.629518,-63.88
2026-06-18 11:35:58.649758,-68.53
2026-06-18 11:35:58.649758,-60.23
2026-06-18 11:35:58.661637,-62.91
2026-06-18 11:35:58.661637,-28.77
2026-06-18 11:35:58.679375,30.08
2026-06-18 11:35:58.683551,53.81
2026-06-18 11:35:58.696379,39.61
2026-06-18 11:35:58.696379,13.54
2026-06-18 11:35:58.712266,29.39
2026-06-18 11:35:58.716405,42.18
2026-06-18 11:35:58.727792,-1.81
2026-06-18 11:35:58.731314,-65.48
2026-06-18 11:35:58.743429,-77.09
2026-06-18 11:35:58.745440,-38.9
2026-06-18 11:35:58.759769,-0.89
2026-06-18 11:35:58.761765,-15.81
2026-06-18 11:35:58.761765,-6.78
2026-06-18 11:35:58.777601,14.15
2026-06-18 11:35:58.777601,31.99
2026-06-18 11:35:58.795140,24.86
2026-06-18 11:35:58.804478,-5.11
2026-06-18 11:35:58.811538,-36.93
2026-06-18 11:35:58.811538,-62.61
2026-06-18 11:35:58.828636,-69.26
2026-06-18 11:35:58.828636,-58.97
2026-06-18 11:35:58.844265,-57.68
2026-06-18 11:35:58.845265,-53.41
2026-06-18 11:35:58.860020,-22.3
2026-06-18 11:35:58.862046,15.63
2026-06-18 11:35:58.876840,46.39
2026-06-18 11:35:58.879437,-0.6
2026-06-18 11:35:58.888362,-50.35
2026-06-18 11:35:58.899841,-41.14
2026-06-18 11:35:58.903943,-4.12
2026-06-18 11:35:58.911737,-20.02
2026-06-18 11:35:58.911737,-74.65
2026-06-18 11:35:58.929872,-92.19
2026-06-18 11:35:58.929872,-68.84
2026-06-18 11:35:58.945809,-67.5
2026-06-18 11:35:58.945809,-106.96
2026-06-18 11:35:58.962070,-126.33
2026-06-18 11:35:58.962625,-75.95
2026-06-18 11:35:58.977536,-10.89
2026-06-18 11:35:58.978318,7.07
2026-06-18 11:35:58.993241,7.04
2026-06-18 11:35:59.001347,14.96
2026-06-18 11:35:59.008977,33.79
2026-06-18 11:35:59.014205,51.53
2026-06-18 11:35:59.014205,95.06
2026-06-18 11:35:59.028234,124.43
2026-06-18 11:35:59.028234,161.62
2026-06-18 11:35:59.044852,215.54
2026-06-18 11:35:59.044852,242.32
2026-06-18 11:35:59.062208,227.18
2026-06-18 11:35:59.062208,221.07
2026-06-18 11:35:59.078546,248.82
2026-06-18 11:35:59.078546,269.46
2026-06-18 11:35:59.095199,227.32
2026-06-18 11:35:59.096052,124.69
2026-06-18 11:35:59.110058,42.48
2026-06-18 11:35:59.118435,38.29
2026-06-18 11:35:59.126775,81.87
2026-06-18 11:35:59.129792,111.32
2026-06-18 11:35:59.129792,139.61
2026-06-18 11:35:59.149862,149.86
2026-06-18 11:35:59.149862,117.27
2026-06-18 11:35:59.161504,69.92
2026-06-18 11:35:59.161504,54.65
2026-06-18 11:35:59.178979,66.31
2026-06-18 11:35:59.178979,77.92
2026-06-18 11:35:59.196367,63.6
2026-06-18 11:35:59.196367,38.41
2026-06-18 11:35:59.212044,23.29
2026-06-18 11:35:59.219997,14.22
2026-06-18 11:35:59.228057,5.19
2026-06-18 11:35:59.233121,10.14
2026-06-18 11:35:59.242768,49.89
2026-06-18 11:35:59.244745,90.44
2026-06-18 11:35:59.259485,111.88
2026-06-18 11:35:59.262060,116.29
2026-06-18 11:35:59.262060,124.66
2026-06-18 11:35:59.277681,134.99
2026-06-18 11:35:59.277681,141.28
2026-06-18 11:35:59.297711,97.78
2026-06-18 11:35:59.297711,21.68
2026-06-18 11:35:59.312549,-16.24
2026-06-18 11:35:59.312549,-0.24
2026-06-18 11:35:59.329678,30.6
2026-06-18 11:35:59.337543,19.51
2026-06-18 11:35:59.344924,-9.45
2026-06-18 11:35:59.345812,-9.4
2026-06-18 11:35:59.360617,28.46
2026-06-18 11:35:59.361964,68.12
2026-06-18 11:35:59.376128,94.64
2026-06-18 11:35:59.378541,98.15
2026-06-18 11:35:59.378541,82.73
2026-06-18 11:35:59.394587,56.45
2026-06-18 11:35:59.394587,60.15
2026-06-18 11:35:59.411364,102.63
2026-06-18 11:35:59.411364,122.02
2026-06-18 11:35:59.428312,94.54
2026-06-18 11:35:59.428312,42.33
2026-06-18 11:35:59.446243,14.26
2026-06-18 11:35:59.449321,24.14
2026-06-18 11:35:59.461976,27.0
2026-06-18 11:35:59.462646,10.95
2026-06-18 11:35:59.477077,4.92
2026-06-18 11:35:59.478096,31.76
2026-06-18 11:35:59.493266,65.43
2026-06-18 11:35:59.495653,60.13
2026-06-18 11:35:59.509691,52.86
2026-06-18 11:35:59.516333,48.62
2026-06-18 11:35:59.524667,59.32
2026-06-18 11:35:59.532070,44.1
2026-06-18 11:35:59.540432,-8.85
2026-06-18 11:35:59.545065,-80.45
2026-06-18 11:35:59.545065,-112.88
2026-06-18 11:35:59.561618,-127.24
2026-06-18 11:35:59.561618,-127.6
2026-06-18 11:35:59.578253,-132.93
2026-06-18 11:35:59.578253,-139.24
2026-06-18 11:35:59.595187,-132.57
2026-06-18 11:35:59.595187,-147.83
2026-06-18 11:35:59.610642,-191.86
2026-06-18 11:35:59.612319,-227.72
2026-06-18 11:35:59.626505,-172.85
2026-06-18 11:35:59.628909,-61.54
2026-06-18 11:35:59.642694,1.45
2026-06-18 11:35:59.649510,-37.36
2026-06-18 11:35:59.649510,-109.81
2026-06-18 11:35:59.662312,-133.14
2026-06-18 11:35:59.662312,-110.58
2026-06-18 11:35:59.678442,-97.09
2026-06-18 11:35:59.678442,-91.63
2026-06-18 11:35:59.695595,-61.33
2026-06-18 11:35:59.695595,3.66
2026-06-18 11:35:59.712144,53.39
2026-06-18 11:35:59.712144,66.06
2026-06-18 11:35:59.727496,59.75
2026-06-18 11:35:59.729398,68.41
2026-06-18 11:35:59.743217,94.93
2026-06-18 11:35:59.745785,94.46
2026-06-18 11:35:59.759657,78.07
2026-06-18 11:35:59.762443,43.85
2026-06-18 11:35:59.762443,-1.15
2026-06-18 11:35:59.778439,-36.96
2026-06-18 11:35:59.778439,-53.69
2026-06-18 11:35:59.795796,-45.46
2026-06-18 11:35:59.795796,-35.29
2026-06-18 11:35:59.812603,-50.03
2026-06-18 11:35:59.812603,-55.75
2026-06-18 11:35:59.828760,-38.56
2026-06-18 11:35:59.828760,5.41
2026-06-18 11:35:59.844986,34.24
2026-06-18 11:35:59.852990,25.11
2026-06-18 11:35:59.860617,30.96
2026-06-18 11:35:59.868668,33.79
2026-06-18 11:35:59.876631,26.65
2026-06-18 11:35:59.879480,-9.3
2026-06-18 11:35:59.892703,-49.05
2026-06-18 11:35:59.896198,-63.73
2026-06-18 11:35:59.896198,-55.45
2026-06-18 11:35:59.912928,-63.14
2026-06-18 11:35:59.912928,-83.72
2026-06-18 11:35:59.929726,-94.24
2026-06-18 11:35:59.929726,-94.77
2026-06-18 11:35:59.945574,-112.2
2026-06-18 11:35:59.945574,-133.53
2026-06-18 11:35:59.961714,-114.95
2026-06-18 11:35:59.962640,-46.72
2026-06-18 11:35:59.977845,46.05
2026-06-18 11:35:59.984900,57.76
2026-06-18 11:35:59.992910,-20.14
2026-06-18 11:36:00.001340,-114.56
2026-06-18 11:36:00.009356,-150.81
2026-06-18 11:36:00.016892,-142.09
2026-06-18 11:36:00.023964,-146.36
2026-06-18 11:36:00.029484,-181.44
2026-06-18 11:36:00.037595,-186.51
2026-06-18 11:36:00.048051,-159.7
2026-06-18 11:36:00.048051,-135.03
2026-06-18 11:36:00.061172,-135.35
2026-06-18 11:36:00.061172,-132.68
2026-06-18 11:36:00.079035,-106.15
2026-06-18 11:36:00.087006,-57.85
2026-06-18 11:36:00.094667,-36.67
2026-06-18 11:36:00.094667,-70.32
2026-06-18 11:36:00.110603,-89.87
2026-06-18 11:36:00.117303,-68.52
2026-06-18 11:36:00.126210,-23.4
2026-06-18 11:36:00.128224,-24.28
2026-06-18 11:36:00.142406,-79.88
2026-06-18 11:36:00.144974,-128.24
2026-06-18 11:36:00.144974,-121.62
2026-06-18 11:36:00.161945,-95.15
2026-06-18 11:36:00.161945,-74.77
2026-06-18 11:36:00.180593,-46.54
2026-06-18 11:36:00.188720,-12.47
2026-06-18 11:36:00.195738,3.51
2026-06-18 11:36:00.201023,5.48
2026-06-18 11:36:00.212395,20.38
2026-06-18 11:36:00.212395,33.21
2026-06-18 11:36:00.227498,51.95
2026-06-18 11:36:00.228952,65.62
2026-06-18 11:36:00.242995,79.22
2026-06-18 11:36:00.249192,53.95
2026-06-18 11:36:00.259708,6.92
2026-06-18 11:36:00.262679,-30.93
2026-06-18 11:36:00.275995,-33.76
2026-06-18 11:36:00.279179,-37.57
2026-06-18 11:36:00.279179,-38.38
2026-06-18 11:36:00.297742,-40.17
2026-06-18 11:36:00.306230,-12.11
2026-06-18 11:36:00.312035,13.82
2026-06-18 11:36:00.321753,32.65
2026-06-18 11:36:00.329562,56.37
2026-06-18 11:36:00.329562,67.03
2026-06-18 11:36:00.345196,62.72
2026-06-18 11:36:00.348563,42.5
2026-06-18 11:36:00.360734,35.33
2026-06-18 11:36:00.362725,37.14
2026-06-18 11:36:00.375982,27.0
2026-06-18 11:36:00.379236,-8.95
2026-06-18 11:36:00.379236,-44.73
2026-06-18 11:36:00.394434,-44.5
2026-06-18 11:36:00.394434,-20.4
2026-06-18 11:36:00.414954,-8.36
2026-06-18 11:36:00.421346,-11.3
2026-06-18 11:36:00.428319,-14.23
2026-06-18 11:36:00.428319,-3.21
2026-06-18 11:36:00.444776,17.7
2026-06-18 11:36:00.444776,48.45
2026-06-18 11:36:00.461892,77.07
2026-06-18 11:36:00.461892,82.65
2026-06-18 11:36:00.477213,77.26
2026-06-18 11:36:00.478907,56.98
2026-06-18 11:36:00.493293,50.72
2026-06-18 11:36:00.496283,44.5
2026-06-18 11:36:00.509583,23.38
2026-06-18 11:36:00.516733,7.34
2026-06-18 11:36:00.524965,8.3
2026-06-18 11:36:00.529662,1.3
2026-06-18 11:36:00.529662,-9.66
2026-06-18 11:36:00.547726,-26.52
2026-06-18 11:36:00.554452,-19.43
2026-06-18 11:36:00.562544,6.54
2026-06-18 11:36:00.562544,32.38
2026-06-18 11:36:00.579090,28.24
2026-06-18 11:36:00.583202,23.12
2026-06-18 11:36:00.594892,70.77
2026-06-18 11:36:00.597868,122.15
2026-06-18 11:36:00.610504,125.52
2026-06-18 11:36:00.611540,52.26
2026-06-18 11:36:00.626320,-37.55
2026-06-18 11:36:00.634100,-77.17
2026-06-18 11:36:00.642574,-52.9
2026-06-18 11:36:00.645010,-24.77
2026-06-18 11:36:00.645010,-19.68
2026-06-18 11:36:00.661057,-6.64
2026-06-18 11:36:00.661057,16.28
2026-06-18 11:36:00.679390,25.15
2026-06-18 11:36:00.679390,34.97
2026-06-18 11:36:00.694765,46.74
2026-06-18 11:36:00.694765,63.42
2026-06-18 11:36:00.711510,75.04
2026-06-18 11:36:00.711510,68.7
2026-06-18 11:36:00.727094,66.36
2026-06-18 11:36:00.735771,64.04
2026-06-18 11:36:00.743504,54.77
2026-06-18 11:36:00.747690,19.67
2026-06-18 11:36:00.759550,-9.29
2026-06-18 11:36:00.761572,19.62
2026-06-18 11:36:00.761572,66.28
2026-06-18 11:36:00.780062,57.99
2026-06-18 11:36:00.780062,11.93
2026-06-18 11:36:00.794787,-37.88
2026-06-18 11:36:00.794787,-28.73
2026-06-18 11:36:00.811819,5.24
2026-06-18 11:36:00.811819,14.17
2026-06-18 11:36:00.828884,-0.83
2026-06-18 11:36:00.828884,-14.75
2026-06-18 11:36:00.844853,0.25
2026-06-18 11:36:00.852570,6.21
2026-06-18 11:36:00.860206,8.17
2026-06-18 11:36:00.866701,-0.82
2026-06-18 11:36:00.876175,-5.79
2026-06-18 11:36:00.883261,-7.75
2026-06-18 11:36:00.891236,-1.75
2026-06-18 11:36:00.899240,4.23
2026-06-18 11:36:00.904898,31.08
2026-06-18 11:36:00.911939,46.84
2026-06-18 11:36:00.911939,38.65
2026-06-18 11:36:00.927869,10.59
2026-06-18 11:36:00.938669,4.57
2026-06-18 11:36:00.946452,38.38
2026-06-18 11:36:00.953663,73.01
2026-06-18 11:36:00.961591,90.56
2026-06-18 11:36:00.967405,69.21
2026-06-18 11:36:00.977445,31.05
2026-06-18 11:36:00.979922,-8.9
2026-06-18 11:36:00.993137,-38.71
2026-06-18 11:36:01.001040,-45.48
2026-06-18 11:36:01.008940,-25.35
2026-06-18 11:36:01.012957,4.62
2026-06-18 11:36:01.012957,38.43
2026-06-18 11:36:01.027613,35.25
2026-06-18 11:36:01.027613,11.2
2026-06-18 11:36:01.047663,-7.76
2026-06-18 11:36:01.056043,5.21
2026-06-18 11:36:01.063591,10.16
2026-06-18 11:36:01.071625,-8.8
2026-06-18 11:36:01.077791,-12.73
2026-06-18 11:36:01.082957,6.24
2026-06-18 11:36:01.094713,26.11
2026-06-18 11:36:01.097479,-3.87
2026-06-18 11:36:01.110302,-53.61
2026-06-18 11:36:01.112140,-55.33
2026-06-18 11:36:01.125994,-13.26
2026-06-18 11:36:01.128872,0.74
2026-06-18 11:36:01.142405,-7.23
2026-06-18 11:36:01.149009,-17.14
2026-06-18 11:36:01.149009,5.83
2026-06-18 11:36:01.161933,30.67
2026-06-18 11:36:01.161933,45.45
2026-06-18 11:36:01.180278,61.14
2026-06-18 11:36:01.185625,68.79
2026-06-18 11:36:01.195343,41.58
2026-06-18 11:36:01.198595,-5.39
2026-06-18 11:36:01.212063,-12.33
2026-06-18 11:36:01.212063,6.64
2026-06-18 11:36:01.227263,12.58
2026-06-18 11:36:01.228674,-15.35
2026-06-18 11:36:01.243756,-57.06
2026-06-18 11:36:01.245751,-78.66
2026-06-18 11:36:01.259451,-76.28
2026-06-18 11:36:01.262272,-79.88
2026-06-18 11:36:01.262272,-54.61
2026-06-18 11:36:01.278106,-12.54
2026-06-18 11:36:01.286286,28.32
2026-06-18 11:36:01.294636,41.11
2026-06-18 11:36:01.294636,36.92
2026-06-18 11:36:01.312902,15.84
2026-06-18 11:36:01.312902,3.82
2026-06-18 11:36:01.328653,19.73
2026-06-18 11:36:01.328653,32.56
2026-06-18 11:36:01.345058,30.41
2026-06-18 11:36:01.349286,0.41
2026-06-18 11:36:01.360230,-31.43
2026-06-18 11:36:01.362654,-39.24
2026-06-18 11:36:01.375555,-35.06
2026-06-18 11:36:01.383736,-43.84
2026-06-18 11:36:01.391754,-41.63
2026-06-18 11:36:01.399770,-29.48
2026-06-18 11:36:01.403883,-5.46
2026-06-18 11:36:01.411838,-5.43
2026-06-18 11:36:01.411838,0.57
2026-06-18 11:36:01.427473,12.51
2026-06-18 11:36:01.427473,17.42
2026-06-18 11:36:01.444485,15.34
2026-06-18 11:36:01.444485,0.34
2026-06-18 11:36:01.461078,-5.63
2026-06-18 11:36:01.461078,-6.6
2026-06-18 11:36:01.478022,-10.55
2026-06-18 11:36:01.478895,-24.42
2026-06-18 11:36:01.493447,-34.25
2026-06-18 11:36:01.494833,-39.06
2026-06-18 11:36:01.509403,-23.94
2026-06-18 11:36:01.517069,-2.92
2026-06-18 11:36:01.524218,34.9
2026-06-18 11:36:01.532471,62.59
2026-06-18 11:36:01.539642,81.18
2026-06-18 11:36:01.544577,62.87
2026-06-18 11:36:01.551568,28.72
2026-06-18 11:36:01.561077,28.58
2026-06-18 11:36:01.561077,48.33
2026-06-18 11:36:01.578515,54.06
2026-06-18 11:36:01.586658,4.04
2026-06-18 11:36:01.594617,-61.65
2026-06-18 11:36:01.594617,-86.21
2026-06-18 11:36:01.610319,-67.87
2026-06-18 11:36:01.618469,-38.68
2026-06-18 11:36:01.625756,19.22
2026-06-18 11:36:01.628285,96.74
2026-06-18 11:36:01.642333,122.12
2026-06-18 11:36:01.644960,63.8
2026-06-18 11:36:01.644960,-24.07
2026-06-18 11:36:01.661405,-83.65
2026-06-18 11:36:01.661405,-69.31
2026-06-18 11:36:01.679935,-15.23
2026-06-18 11:36:01.686829,19.67
2026-06-18 11:36:01.694734,17.58
2026-06-18 11:36:01.694734,-17.33
2026-06-18 11:36:01.712195,-66.0
2026-06-18 11:36:01.720121,-80.59
2026-06-18 11:36:01.727148,-47.36
2026-06-18 11:36:01.733527,-3.34
2026-06-18 11:36:01.743206,48.42
2026-06-18 11:36:01.744666,68.08
2026-06-18 11:36:01.759047,51.82
2026-06-18 11:36:01.766858,16.73
2026-06-18 11:36:01.774170,24.61
2026-06-18 11:36:01.782037,56.33
2026-06-18 11:36:01.790309,82.91
2026-06-18 11:36:01.794330,73.54
2026-06-18 11:36:01.794330,35.36
2026-06-18 11:36:01.811647,5.33
2026-06-18 11:36:01.811647,-11.61
2026-06-18 11:36:01.828918,-22.49
2026-06-18 11:36:01.837284,-23.38
2026-06-18 11:36:01.844374,-18.28
2026-06-18 11:36:01.844374,-23.17
2026-06-18 11:36:01.860117,-12.11
2026-06-18 11:36:01.861685,12.83
2026-06-18 11:36:01.875848,41.62
2026-06-18 11:36:01.878604,45.39
2026-06-18 11:36:01.892230,54.12
2026-06-18 11:36:01.895154,65.79
2026-06-18 11:36:01.895154,86.35
2026-06-18 11:36:01.911249,80.95
2026-06-18 11:36:01.911249,49.7
2026-06-18 11:36:01.928556,0.69
2026-06-18 11:36:01.928556,-43.09
2026-06-18 11:36:01.944900,-66.75
2026-06-18 11:36:01.944900,-58.46
2026-06-18 11:36:01.961557,-39.26
2026-06-18 11:36:01.961557,-46.03
2026-06-18 11:36:01.977983,-60.73
2026-06-18 11:36:01.979285,-51.47
2026-06-18 11:36:01.993030,-14.4
2026-06-18 11:36:01.994822,-6.36
2026-06-18 11:36:02.009300,-14.29
2026-06-18 11:36:02.012324,-19.2
2026-06-18 11:36:02.025335,-5.17
2026-06-18 11:36:02.028360,8.79
2026-06-18 11:36:02.028360,-8.17
2026-06-18 11:36:02.045972,-38.98
2026-06-18 11:36:02.045972,-49.73
2026-06-18 11:36:02.061051,-42.51
2026-06-18 11:36:02.061051,-26.38
2026-06-18 11:36:02.077496,-8.34
2026-06-18 11:36:02.077496,-9.29
2026-06-18 11:36:02.094932,-18.2
2026-06-18 11:36:02.099269,-23.08
2026-06-18 11:36:02.110712,-11.03
2026-06-18 11:36:02.111044,3.95
2026-06-18 11:36:02.125750,35.77
2026-06-18 11:36:02.128641,42.56
2026-06-18 11:36:02.142504,36.37
2026-06-18 11:36:02.149272,25.25
2026-06-18 11:36:02.153816,17.16
2026-06-18 11:36:02.161753,8.12
2026-06-18 11:36:02.166078,-6.84
2026-06-18 11:36:02.178052,-16.76
2026-06-18 11:36:02.186968,-16.68
2026-06-18 11:36:02.193395,-17.59
2026-06-18 11:36:02.199154,-34.42
2026-06-18 11:36:02.211020,-45.19
2026-06-18 11:36:02.211020,-26.06
2026-06-18 11:36:02.227541,-4.04
2026-06-18 11:36:02.227541,-14.96
2026-06-18 11:36:02.243463,-7.92
2026-06-18 11:36:02.251246,27.94
2026-06-18 11:36:02.259278,80.53
2026-06-18 11:36:02.263371,75.16
2026-06-18 11:36:02.275420,45.92
2026-06-18 11:36:02.277957,51.66
2026-06-18 11:36:02.277957,48.42
2026-06-18 11:36:02.293953,5.39
2026-06-18 11:36:02.293953,-47.37
2026-06-18 11:36:02.311715,-74.99
2026-06-18 11:36:02.311715,-52.73
2026-06-18 11:36:02.328145,-7.69
2026-06-18 11:36:02.328145,21.21
2026-06-18 11:36:02.344766,46.97
2026-06-18 11:36:02.344766,63.65
2026-06-18 11:36:02.360016,46.42
2026-06-18 11:36:02.368426,-4.56
2026-06-18 11:36:02.376637,-14.49
2026-06-18 11:36:02.378626,8.47
2026-06-18 11:36:02.391837,39.27
2026-06-18 11:36:02.394802,61.96
2026-06-18 11:36:02.394802,45.73
2026-06-18 11:36:02.410511,-3.25
2026-06-18 11:36:02.410511,-38.06
2026-06-18 11:36:02.427874,-50.81
2026-06-18 11:36:02.427874,-34.63
2026-06-18 11:36:02.444129,-15.55
2026-06-18 11:36:02.444129,-19.46
2026-06-18 11:36:02.461921,-49.21
2026-06-18 11:36:02.470031,-57.92
2026-06-18 11:36:02.477970,-27.78
2026-06-18 11:36:02.483058,-0.77
2026-06-18 11:36:02.493600,4.21
2026-06-18 11:36:02.495582,-16.71
2026-06-18 11:36:02.509321,-17.62
2026-06-18 11:36:02.512289,9.33
2026-06-18 11:36:02.525207,32.17
2026-06-18 11:36:02.530295,2.16
2026-06-18 11:36:02.530295,-54.57
2026-06-18 11:36:02.544485,-86.13
2026-06-18 11:36:02.544485,-73.76
2026-06-18 11:36:02.562833,-58.47
2026-06-18 11:36:02.570906,-43.25
2026-06-18 11:36:02.578542,0.74
2026-06-18 11:36:02.586273,89.29
2026-06-18 11:36:02.593641,136.61
2026-06-18 11:36:02.593641,78.22
2026-06-18 11:36:02.610633,-6.75
2026-06-18 11:36:02.618519,-21.64
2026-06-18 11:36:02.626354,19.26
2026-06-18 11:36:02.627355,26.13
2026-06-18 11:36:02.642352,-27.73
2026-06-18 11:36:02.645247,-76.35
2026-06-18 11:36:02.645247,-67.01
2026-06-18 11:36:02.660623,-30.86
2026-06-18 11:36:02.660623,-21.75
2026-06-18 11:36:02.677756,-31.59
2026-06-18 11:36:02.677756,-45.36
2026-06-18 11:36:02.694875,-51.1
2026-06-18 11:36:02.694875,-32.94
2026-06-18 11:36:02.711251,-1.93
2026-06-18 11:36:02.711251,20.97
2026-06-18 11:36:02.727463,38.77
2026-06-18 11:36:02.735497,32.61
2026-06-18 11:36:02.742798,32.45
2026-06-18 11:36:02.744170,33.28
2026-06-18 11:36:02.758672,43.06
2026-06-18 11:36:02.760686,29.91
2026-06-18 11:36:02.775244,-6.06
2026-06-18 11:36:02.781003,-41.85
2026-06-18 11:36:02.781003,-46.61
2026-06-18 11:36:02.794709,-26.48
2026-06-18 11:36:02.794709,-21.37
2026-06-18 11:36:02.811123,-40.17
2026-06-18 11:36:02.811123,-34.0
2026-06-18 11:36:02.835913,5.97
2026-06-18 11:36:02.849086,40.77
2026-06-18 11:36:02.855114,42.55
2026-06-18 11:36:02.857130,12.49
2026-06-18 11:36:02.860306,15.41
2026-06-18 11:36:02.867864,42.2
2026-06-18 11:36:02.875999,55.92
2026-06-18 11:36:02.876592,21.81
2026-06-18 11:36:02.891624,-30.04
2026-06-18 11:36:02.899165,-56.76
2026-06-18 11:36:02.904221,-48.51
2026-06-18 11:36:02.911840,-22.4
2026-06-18 11:36:02.911840,-4.38
2026-06-18 11:36:02.928039,-21.27
2026-06-18 11:36:02.928039,-31.11
2026-06-18 11:36:02.944705,-11.06
2026-06-18 11:36:02.944705,23.82
2026-06-18 11:36:02.961413,50.57
2026-06-18 11:36:02.961413,32.4
2026-06-18 11:36:02.977787,10.35
2026-06-18 11:36:02.985309,1.35
2026-06-18 11:36:02.993176,2.33
2026-06-18 11:36:03.000890,-8.62
2026-06-18 11:36:03.008912,-17.53
2026-06-18 11:36:03.016493,-39.34
2026-06-18 11:36:03.025624,-40.13
2026-06-18 11:36:03.032067,-18.04
2026-06-18 11:36:03.041258,4.93
2026-06-18 11:36:03.047258,-3.05
2026-06-18 11:36:03.056282,-20.95
2026-06-18 11:36:03.061645,-22.83
2026-06-18 11:36:03.061645,8.13
2026-06-18 11:36:03.079066,47.89
2026-06-18 11:36:03.079066,48.64
2026-06-18 11:36:03.093654,26.51
2026-06-18 11:36:03.093654,5.48
2026-06-18 11:36:03.110853,2.47
2026-06-18 11:36:03.112533,-2.52
2026-06-18 11:36:03.126532,-7.48
2026-06-18 11:36:03.132719,-18.39
2026-06-18 11:36:03.141720,-21.28
2026-06-18 11:36:03.143538,-20.18
2026-06-18 11:36:03.143538,-18.09
2026-06-18 11:36:03.161302,-15.02
2026-06-18 11:36:03.161302,-8.97
2026-06-18 11:36:03.177676,-7.93
2026-06-18 11:36:03.177676,8.03
2026-06-18 11:36:03.194326,44.8
2026-06-18 11:36:03.194326,70.45
2026-06-18 11:36:03.210378,67.11
2026-06-18 11:36:03.210378,29.96
2026-06-18 11:36:03.227355,20.86
2026-06-18 11:36:03.233141,25.73
2026-06-18 11:36:03.243125,16.64
2026-06-18 11:36:03.244902,-20.25
2026-06-18 11:36:03.258804,-47.02
2026-06-18 11:36:03.262137,-47.78
2026-06-18 11:36:03.275338,-39.58
2026-06-18 11:36:03.277906,-36.4
2026-06-18 11:36:03.277906,-29.25
2026-06-18 11:36:03.294151,-10.2
2026-06-18 11:36:03.294151,21.69
2026-06-18 11:36:03.313284,20.59
2026-06-18 11:36:03.321434,-5.38
2026-06-18 11:36:03.328794,0.61
2026-06-18 11:36:03.337276,43.4
2026-06-18 11:36:03.345217,78.0
2026-06-18 11:36:03.348122,36.82
2026-06-18 11:36:03.360576,-41.97
2026-06-18 11:36:03.360888,-74.59
2026-06-18 11:36:03.376408,-44.37
2026-06-18 11:36:03.378344,-37.19
2026-06-18 11:36:03.391719,-54.91
2026-06-18 11:36:03.394967,-59.61
2026-06-18 11:36:03.394967,-34.44
2026-06-18 11:36:03.410011,-3.42
2026-06-18 11:36:03.410011,22.47
2026-06-18 11:36:03.427530,20.37
2026-06-18 11:36:03.427530,12.3
2026-06-18 11:36:03.443857,30.15
2026-06-18 11:36:03.443857,51.89
2026-06-18 11:36:03.461574,64.57
2026-06-18 11:36:03.463954,43.35
2026-06-18 11:36:03.477427,7.31
2026-06-18 11:36:03.478164,11.26
2026-06-18 11:36:03.493016,74.88
2026-06-18 11:36:03.494869,110.32
2026-06-18 11:36:03.508690,52.06
2026-06-18 11:36:03.511303,-56.65
2026-06-18 11:36:03.525286,-113.08
2026-06-18 11:36:03.528321,-101.57
2026-06-18 11:36:03.528321,-53.31
2026-06-18 11:36:03.544481,-25.18
2026-06-18 11:36:03.544481,3.8
2026-06-18 11:36:03.561381,47.56
2026-06-18 11:36:03.561381,68.22
2026-06-18 11:36:03.578357,34.05
2026-06-18 11:36:03.578357,-12.89
2026-06-18 11:36:03.595084,-14.81
2026-06-18 11:36:03.599703,-2.8
2026-06-18 11:36:03.610013,-7.76
2026-06-18 11:36:03.610013,-39.56
2026-06-18 11:36:03.626262,-55.28
2026-06-18 11:36:03.627659,-53.02
2026-06-18 11:36:03.641812,-31.86
2026-06-18 11:36:03.649838,-32.69
2026-06-18 11:36:03.657228,-24.57
2026-06-18 11:36:03.665055,29.28
2026-06-18 11:36:03.671049,92.82
2026-06-18 11:36:03.677173,94.34
2026-06-18 11:36:03.677173,40.14
2026-06-18 11:36:03.694374,1.14
2026-06-18 11:36:03.694374,15.06
2026-06-18 11:36:03.711286,52.8
2026-06-18 11:36:03.711286,31.64
2026-06-18 11:36:03.727185,-20.26
2026-06-18 11:36:03.728934,-54.98
2026-06-18 11:36:03.742939,-56.7
2026-06-18 11:36:03.743838,-47.46
2026-06-18 11:36:03.758664,-50.21
2026-06-18 11:36:03.766255,-51.95
2026-06-18 11:36:03.774980,0.05
2026-06-18 11:36:03.776945,59.75
2026-06-18 11:36:03.776945,79.35
2026-06-18 11:36:03.794427,35.18
2026-06-18 11:36:03.805136,-19.73
2026-06-18 11:36:03.810381,-49.48
2026-06-18 11:36:03.810381,-50.22
2026-06-18 11:36:03.827113,-42.01
2026-06-18 11:36:03.827113,-41.8
2026-06-18 11:36:03.843813,-45.57
2026-06-18 11:36:03.843813,-49.33
2026-06-18 11:36:03.860415,-47.09
2026-06-18 11:36:03.868229,-45.86
2026-06-18 11:36:03.876338,-45.63
2026-06-18 11:36:03.883519,-43.41
2026-06-18 11:36:03.891999,-12.35
2026-06-18 11:36:03.894884,7.61
2026-06-18 11:36:03.908290,11.55
2026-06-18 11:36:03.911682,8.51
2026-06-18 11:36:03.911682,4.49
2026-06-18 11:36:03.927218,2.48
2026-06-18 11:36:03.927218,-8.48
2026-06-18 11:36:03.945166,-12.42
2026-06-18 11:36:03.945166,-10.37
2026-06-18 11:36:03.960651,-27.23
2026-06-18 11:36:03.960651,-44.01
2026-06-18 11:36:03.977037,-46.77
2026-06-18 11:36:03.978002,-33.6
2026-06-18 11:36:03.993751,-19.51
2026-06-18 11:36:03.994476,-22.39
2026-06-18 11:36:04.008472,-12.33
2026-06-18 11:36:04.011485,-4.31
2026-06-18 11:36:04.025445,-10.26
2026-06-18 11:36:04.028410,-24.14
2026-06-18 11:36:04.028410,-31.98
2026-06-18 11:36:04.044221,-16.89
2026-06-18 11:36:04.044221,19.01
2026-06-18 11:36:04.063908,65.68
2026-06-18 11:36:04.071020,62.37
2026-06-18 11:36:04.079148,-3.61
2026-06-18 11:36:04.086881,-72.25
2026-06-18 11:36:04.094445,-86.81
2026-06-18 11:36:04.102456,-53.54
2026-06-18 11:36:04.109993,-1.54
2026-06-18 11:36:04.112856,4.44
2026-06-18 11:36:04.125723,3.42
2026-06-18 11:36:04.126510,22.31
2026-06-18 11:36:04.141151,41.11
2026-06-18 11:36:04.148798,13.04
2026-06-18 11:36:04.156787,15.96
2026-06-18 11:36:04.164795,65.63
2026-06-18 11:36:04.165962,123.01
2026-06-18 11:36:04.180730,115.43
2026-06-18 11:36:04.187770,42.22
2026-06-18 11:36:04.195321,-47.54
2026-06-18 11:36:04.203722,-82.13
2026-06-18 11:36:04.211678,-50.87
2026-06-18 11:36:04.217411,-5.84
2026-06-18 11:36:04.226273,17.07
2026-06-18 11:36:04.226273,-2.92
2026-06-18 11:36:04.243094,-30.76
2026-06-18 11:36:04.243094,-34.59
2026-06-18 11:36:04.257945,6.38
2026-06-18 11:36:04.259969,40.18
2026-06-18 11:36:04.274571,47.94
2026-06-18 11:36:04.277128,36.75
2026-06-18 11:36:04.277128,37.56
2026-06-18 11:36:04.294923,44.34
2026-06-18 11:36:04.304751,34.17
2026-06-18 11:36:04.309655,-5.8
2026-06-18 11:36:04.309655,-42.59
2026-06-18 11:36:04.326450,-40.38
2026-06-18 11:36:04.333752,-16.3
2026-06-18 11:36:04.342843,-20.2
2026-06-18 11:36:04.351673,-34.03
2026-06-18 11:36:04.359580,-22.91
2026-06-18 11:36:04.359580,6.06
2026-06-18 11:36:04.375613,33.89
2026-06-18 11:36:04.376173,33.72
2026-06-18 11:36:04.391162,36.53
2026-06-18 11:36:04.395012,58.24
2026-06-18 11:36:04.395012,69.89
2026-06-18 11:36:04.414949,45.66
2026-06-18 11:36:04.422734,7.62
2026-06-18 11:36:04.430426,-3.36
2026-06-18 11:36:04.435614,3.62
2026-06-18 11:36:04.443431,-9.33
2026-06-18 11:36:04.443431,-54.06
2026-06-18 11:36:04.459979,-68.72
2026-06-18 11:36:04.459979,-42.5
2026-06-18 11:36:04.477393,-30.35
2026-06-18 11:36:04.477393,-17.26
2026-06-18 11:36:04.493188,75.36
2026-06-18 11:36:04.495420,200.35
2026-06-18 11:36:04.509092,219.25
2026-06-18 11:36:04.510419,64.92
2026-06-18 11:36:04.524421,-100.57
2026-06-18 11:36:04.526752,-120.96
2026-06-18 11:36:04.526752,-39.76
2026-06-18 11:36:04.548037,-20.66
2026-06-18 11:36:04.555801,-86.23
2026-06-18 11:36:04.563265,-116.64
2026-06-18 11:36:04.571248,-76.26
2026-06-18 11:36:04.577186,-34.09
2026-06-18 11:36:04.577186,-17.0
2026-06-18 11:36:04.594582,-2.99
2026-06-18 11:36:04.596239,24.89
2026-06-18 11:36:04.610253,50.63
2026-06-18 11:36:04.611979,34.46
2026-06-18 11:36:04.625790,-2.53
2026-06-18 11:36:04.627764,-29.38
2026-06-18 11:36:04.641604,3.6
2026-06-18 11:36:04.643615,59.31
2026-06-18 11:36:04.657843,87.86
2026-06-18 11:36:04.660873,75.48
2026-06-18 11:36:04.672552,31.33
2026-06-18 11:36:04.679155,-6.64
2026-06-18 11:36:04.679155,-3.62
2026-06-18 11:36:04.695937,18.29
2026-06-18 11:36:04.695937,21.18
2026-06-18 11:36:04.710669,7.14
2026-06-18 11:36:04.710669,-5.83
2026-06-18 11:36:04.727650,11.12
2026-06-18 11:36:04.727650,35.94
2026-06-18 11:36:04.742646,74.56
2026-06-18 11:36:04.743602,87.12
2026-06-18 11:36:04.758370,74.75
2026-06-18 11:36:04.761190,44.53
2026-06-18 11:36:04.775074,13.46
2026-06-18 11:36:04.777139,-12.48
2026-06-18 11:36:04.777139,-35.3
2026-06-18 11:36:04.795901,-59.01
2026-06-18 11:36:04.795901,-74.63
2026-06-18 11:36:04.809757,-65.3
2026-06-18 11:36:04.809757,-41.1
2026-06-18 11:36:04.828946,-39.9
2026-06-18 11:36:04.828946,-45.67
2026-06-18 11:36:04.844758,-12.6
2026-06-18 11:36:04.853023,33.23
2026-06-18 11:36:04.860597,54.95
2026-06-18 11:36:04.867969,23.83
2026-06-18 11:36:04.875854,1.83
2026-06-18 11:36:04.877843,8.78
2026-06-18 11:36:04.891648,22.67
2026-06-18 11:36:04.895893,-1.33
2026-06-18 11:36:04.907965,-48.08
2026-06-18 11:36:04.910385,-73.71
2026-06-18 11:36:04.910385,-59.42
2026-06-18 11:36:04.925960,-42.2
2026-06-18 11:36:04.925960,-34.03
2026-06-18 11:36:04.942377,-35.85
2026-06-18 11:36:04.942377,-35.67
2026-06-18 11:36:04.958995,-16.59
2026-06-18 11:36:04.958995,11.35
2026-06-18 11:36:04.975661,49.11
2026-06-18 11:36:04.975661,69.76
2026-06-18 11:36:04.992338,70.4
2026-06-18 11:36:04.995968,31.25
2026-06-18 11:36:05.008526,-0.75
2026-06-18 11:36:05.010227,-4.73
2026-06-18 11:36:05.024218,7.24
2026-06-18 11:36:05.025854,0.24
2026-06-18 11:36:05.033368,-31.61
2026-06-18 11:36:05.042241,-55.33
2026-06-18 11:36:05.042241,-46.1
2026-06-18 11:36:05.060028,-46.86
2026-06-18 11:36:05.060028,-40.66
2026-06-18 11:36:05.079604,-6.62
2026-06-18 11:36:05.086093,26.24
2026-06-18 11:36:05.092587,36.06
2026-06-18 11:36:05.096066,29.91
2026-06-18 11:36:05.109042,24.79
2026-06-18 11:36:05.109042,14.71
2026-06-18 11:36:05.125640,1.71
2026-06-18 11:36:05.125640,-4.27
2026-06-18 11:36:05.140814,12.66
2026-06-18 11:36:05.142567,20.56
2026-06-18 11:36:05.142567,5.53
2026-06-18 11:36:05.158857,-19.37
2026-06-18 11:36:05.158857,-20.27
2026-06-18 11:36:05.180197,-22.16
2026-06-18 11:36:05.185568,-23.04
2026-06-18 11:36:05.196150,-9.99
